Acq. time (s)=	15
Accumulations=	10
Range (cm-¹)=	0...1850
Windows=	7
Autofocus=	Off
AutoExposure=	Off
Spike filter=	Multiple accum.
Delay time (s)=	0
Binning=	1
Readout mode=	Signal
DeNoise=	Standard
ICS correction=	On
Dark correction=	Off
Inst. Process=	On
Instrument=	LabRAM S3000
Detector=	Synapse
Objective=	x100
Grating=	1800
ND Filter=	100%
Laser (nm)=	632.81 
Slit=	100.021
Hole=	1000.03
Microscope=	Principal
StageXY=	Märzhauser
StageZ=	Märzhauser
X (µm)=	-1134.8
Y (µm)=	21742.6
Z (µm)=	-5.1
Project=	
Sample=	
Site=	
Title=	SPIS_spectra
Remark=	
Date=	17.06.2019 11:03
Operator=	
Acquired=	17.06.2019 11:03:32
Base:Sub=	17.06.2019 11:21:16
1.09422	56.9141
1.43862	56.181
1.78454	54.7703
2.12892	53.2003
2.4748	51.5577
2.81915	49.6521
3.16501	47.7677
3.50932	46.4509
3.85515	45.3149
4.19944	44.5003
4.54523	43.8158
4.88949	43.25
5.23373	42.6998
5.57948	42.1992
5.92369	41.728
6.26941	41.2191
6.61359	40.7195
6.95928	40.2291
7.30343	39.7438
7.64757	39.2676
7.99321	38.834
8.33732	38.3862
8.68293	37.9383
9.02701	37.5038
9.37107	37.0755
9.71664	36.6587
10.0607	36.2593
10.4047	35.8764
10.7502	35.5058
11.0942	35.1566
11.4382	34.7896
11.7836	34.4087
12.1276	34.0301
12.4715	33.6339
12.8169	33.2135
13.1608	32.8241
13.5047	32.4313
13.8501	32.0508
14.194	31.6692
14.5378	31.295
14.8816	30.9157
15.227	30.524
15.5707	30.1092
15.9145	29.7659
16.2598	29.3988
16.6035	29.0334
16.9473	28.6768
17.291	28.3268
17.6362	27.9745
17.9799	27.6294
18.3236	27.2819
18.6672	26.9353
19.0109	26.5936
19.356	26.2504
19.6996	25.9127
20.0432	25.5787
20.3868	25.2509
20.7304	24.9239
21.0739	24.5978
21.419	24.2723
21.7625	23.9522
22.106	23.6328
22.4495	23.3153
22.793	23.0048
23.1364	22.6962
23.4814	22.3871
23.8248	22.0825
24.1683	21.7775
24.5117	21.4716
24.8551	21.1657
25.1984	20.8599
25.5418	20.5449
25.8851	20.2295
26.2285	19.9147
26.5718	19.6028
26.9151	19.2914
27.2599	18.9875
27.6031	18.6885
27.9464	18.3842
28.2896	18.0814
28.6328	17.7812
28.9761	17.4231
29.3192	17.1601
29.6624	16.8769
30.0056	16.5772
30.3487	16.2802
30.6919	15.964
31.035	15.685
31.3781	15.388
31.7212	15.0867
32.0642	14.7959
32.4073	14.5064
32.7504	14.2269
33.0934	13.9486
33.4364	13.6589
33.7794	13.3819
34.1224	13.1159
34.4638	12.8524
34.8068	12.592
35.1497	12.3352
35.4926	12.0754
35.8356	11.8083
36.1784	11.539
36.5213	11.2698
36.8642	11.0014
37.207	10.7314
37.5499	10.4602
37.8912	10.1902
38.234	9.91292
38.5768	9.63535
38.9196	9.36587
39.2623	9.09859
39.6051	8.82956
39.9478	8.56361
40.289	8.29753
40.6317	8.03313
40.9744	7.7694
41.317	7.50638
41.6597	7.24531
42.0023	6.98231
42.3435	6.72201
42.6861	6.46729
43.0287	6.21456
43.3712	5.97282
43.7123	5.7307
44.0548	5.4891
44.3974	5.25335
44.7399	5.01439
45.0809	4.77767
45.4234	4.54345
45.7659	4.30853
46.1083	4.07466
46.4493	3.84676
46.7917	3.62104
47.1341	3.39464
47.4765	3.16897
47.8174	2.93964
48.1598	2.71124
48.5021	2.48873
48.8429	2.25318
49.1853	2.01876
49.5276	1.79172
49.8684	1.56687
50.2107	1.35251
50.5529	1.17578
50.8937	1.00766
51.2359	0.84735
51.5781	0.688083
51.9188	0.516913
52.261	0.363456
52.6017	0.216604
52.9439	0.0926414
53.286	-0.00968952
53.6266	-0.0872309
53.9688	-0.127697
54.3093	-0.124087
54.6514	-0.0857051
54.9935	0.0171715
55.3341	0.20203
55.6761	0.472788
56.0166	0.80297
56.3586	1.22764
56.6991	1.75263
57.0411	2.37441
57.3816	3.09256
57.7235	3.94752
58.064	4.92892
58.4059	6.02752
58.7463	7.24719
59.0882	8.52298
59.4286	9.86246
59.7704	11.2655
60.1108	12.7264
60.4526	14.2302
60.7929	15.7458
61.1347	17.3066
61.475	18.879
61.8168	20.4783
62.1571	22.0888
62.4988	23.6382
62.839	25.192
63.1792	26.733
63.5209	28.2769
63.8611	29.7149
64.2028	31.2
64.5429	32.6831
64.8831	34.1858
65.2247	35.675
65.5648	37.0907
65.9064	38.2479
66.2465	40.0077
66.5866	41.5705
66.9281	42.9479
67.2682	44.17
67.6082	45.2815
67.9497	46.3442
68.2897	47.32
68.6296	48.2574
68.9711	49.201
69.3111	49.9889
69.651	50.841
69.9924	51.5042
70.3323	52.2802
70.6722	52.9591
71.0121	53.6476
71.3534	54.1894
71.6933	54.6356
72.0331	55.1567
72.3744	55.7705
72.7142	56.4229
73.054	57.2182
73.3938	58.1812
73.735	59.3622
74.0748	60.9487
74.4145	62.9911
74.7542	65.6729
75.0939	68.5969
75.4351	72.0944
75.7747	76.1453
76.1144	80.8031
76.454	86.007
76.7937	91.5382
77.1348	97.6707
77.4744	104.467
77.8139	111.693
78.1535	119.441
78.493	127.365
78.8326	135.657
79.1721	143.903
79.5131	152.071
79.8526	160.138
80.1921	168.175
80.5315	176.085
80.871	184.023
81.2104	191.453
81.5498	199.169
81.8892	207.23
82.2286	214.625
82.568	220.747
82.9088	224.386
83.2482	225.731
83.5875	224.593
83.9268	223.808
84.2661	222.411
84.6054	221.028
84.9447	219.453
85.2839	217.827
85.6232	215.901
85.9624	213.966
86.3016	211.897
86.6408	209.755
86.98	208.104
87.3191	206.625
87.6583	205.436
87.9974	204.382
88.3366	203.46
88.6757	202.677
89.0148	201.772
89.3538	201.18
89.6929	200.808
90.0319	200.313
90.371	200.416
90.7085	199.905
91.0475	199.052
91.3865	197.31
91.7255	194.512
92.0644	192.686
92.4034	190.643
92.7423	189.118
93.0812	187.783
93.4201	186.949
93.759	185.889
94.0964	184.21
94.4352	182.243
94.7741	179.999
95.1129	177.753
95.4517	175.621
95.7905	173.611
96.1278	171.696
96.4666	169.757
96.8053	168.104
97.1441	166.407
97.4828	164.924
97.8215	163.412
98.1587	162.042
98.4974	160.825
98.8361	159.57
99.1747	158.108
99.5119	156.15
99.8505	153.968
100.189	152.109
100.528	150.128
100.865	148.397
101.203	146.797
101.542	145.274
101.88	143.787
102.217	142.304
102.556	140.836
102.894	139.685
103.231	138.475
103.57	137.272
103.908	135.887
104.247	134.927
104.584	134.279
104.922	134.292
105.26	134.33
105.597	134.12
105.936	133.51
106.273	132.77
106.611	131.662
106.949	130.403
107.286	128.622
107.624	126.428
107.963	124.524
108.299	122.838
108.638	121.244
108.974	119.871
109.313	118.557
109.651	117.233
109.987	116.08
110.326	114.654
110.662	113.785
111	112.874
111.337	112.072
111.675	111.171
112.012	110.46
112.35	109.831
112.688	109.167
113.024	108.529
113.363	107.922
113.699	107.322
114.037	106.724
114.374	106.119
114.712	105.399
115.048	104.655
115.384	103.819
115.722	102.778
116.059	102.063
116.397	101.207
116.733	100.31
117.071	99.2626
117.407	98.1505
117.745	96.9954
118.082	95.9406
118.418	94.8797
118.756	93.9527
119.092	93.0973
119.43	92.2742
119.766	91.5191
120.102	90.8603
120.44	90.346
120.776	89.7795
121.114	89.3824
121.45	88.987
121.786	88.6981
122.124	88.3492
122.46	87.8496
122.796	87.1542
123.134	86.1575
123.47	84.9773
123.806	83.8127
124.144	82.6376
124.48	81.5852
124.816	80.5297
125.153	79.5659
125.489	78.7739
125.825	78.0071
126.161	77.1911
126.499	76.5736
126.835	76.0391
127.171	75.5725
127.507	75.2411
127.844	74.8531
128.18	74.4258
128.516	73.9578
128.852	73.4165
129.189	72.8956
129.525	72.3045
129.861	71.763
130.197	71.1597
130.532	70.5229
130.87	69.8724
131.205	69.2037
131.541	68.5794
131.877	67.9251
132.213	67.1894
132.548	66.4094
132.886	65.7466
133.221	65.1846
133.557	64.6836
133.893	64.2077
134.228	63.7627
134.564	63.3434
134.9	62.9492
135.235	62.5319
135.572	62.1962
135.908	61.8618
136.243	61.6102
136.579	61.4092
136.914	61.2453
137.25	61.0921
137.585	60.8943
137.921	60.7327
138.256	60.5478
138.592	60.2231
138.927	59.7608
139.263	58.1521
139.598	58.5708
139.934	57.9632
140.269	57.2065
140.604	56.4751
140.94	55.7571
141.275	55.1027
141.61	54.5274
141.946	54.1095
142.281	53.6786
142.616	53.1611
142.952	52.7587
143.287	52.4178
143.622	52.1309
143.957	51.838
144.293	51.5721
144.628	51.3473
144.963	51.163
145.298	51.0357
145.633	50.8634
145.968	50.66
146.303	50.4126
146.637	50.0807
146.972	49.6739
147.307	49.2822
147.642	48.9134
147.977	48.5882
148.312	48.2409
148.648	47.8867
148.981	47.5106
149.316	47.1354
149.651	46.8161
149.986	46.5211
150.321	46.2551
150.656	46.0389
150.989	45.8632
151.324	45.7507
151.659	45.6056
151.994	45.4582
152.329	45.3142
152.662	45.1809
152.997	45.0837
153.332	44.9571
153.667	44.8367
154	44.7325
154.335	44.568
154.67	44.2476
155.004	43.9342
155.338	43.5965
155.672	43.5207
156.007	43.3762
156.342	43.0761
156.675	42.7959
157.01	42.5428
157.344	42.1836
157.677	41.8129
158.012	41.4983
158.347	41.2002
158.68	40.9258
159.014	40.6869
159.349	40.4246
159.682	40.1708
160.016	39.9292
160.351	39.7199
160.684	39.513
161.019	39.3325
161.353	39.1529
161.686	39.0095
162.02	38.9088
162.353	38.7834
162.688	38.6258
163.021	38.4107
163.355	38.1261
163.69	37.7632
164.022	37.3885
164.357	37.0489
164.69	36.7709
165.024	36.5473
165.357	36.3256
165.691	36.1033
166.024	35.8201
166.358	35.5745
166.692	35.3526
167.025	35.1836
167.359	35.0353
167.692	34.8346
168.026	34.6691
168.359	34.5149
168.692	34.3042
169.026	34.1045
169.358	33.9148
169.693	33.6948
170.025	33.4849
170.359	33.188
170.692	32.92
171.026	32.7263
171.359	32.493
171.691	32.2514
172.025	32.0358
172.358	31.8302
172.692	31.6667
173.024	31.501
173.357	31.3609
173.691	31.2336
174.023	31.1059
174.357	31.017
174.689	30.8906
175.022	30.7228
175.356	30.5254
175.688	30.317
176.02	30.1316
176.354	29.9454
176.687	29.7844
177.019	29.6514
177.353	29.5208
177.685	29.3943
178.017	29.2441
178.351	29.0937
178.683	28.957
179.016	28.8049
179.348	28.6942
179.682	28.6185
180.014	28.5366
180.346	28.4299
180.678	28.3486
181.012	28.2725
181.344	28.1897
181.676	28.0978
182.008	28.0122
182.342	27.9535
182.674	27.934
183.006	27.8999
183.338	27.8193
183.67	27.7162
184.003	27.6289
184.335	27.5481
184.667	27.4367
184.999	27.3194
185.331	27.1696
185.663	27.0447
185.997	26.936
186.329	26.7944
186.661	26.608
186.993	26.4019
187.324	26.2017
187.656	26.0027
187.988	25.881
188.32	25.8047
188.652	25.7139
188.985	25.6389
189.317	25.5476
189.649	25.5557
189.98	25.5544
190.312	25.5087
190.644	25.4398
190.976	25.3962
191.307	25.3
191.639	25.1134
191.971	24.7913
192.303	24.4679
192.634	24.3678
192.966	24.4236
193.297	24.3865
193.629	24.2736
193.961	24.1436
194.292	23.9211
194.624	23.7225
194.955	23.5872
195.287	23.4098
195.618	23.2412
195.95	23.0688
196.282	22.8938
196.613	22.69
196.944	22.4575
197.276	22.2176
197.607	22.0204
197.939	21.8744
198.269	21.7759
198.6	21.6873
198.932	21.6024
199.263	21.5114
199.594	21.41
199.926	21.3198
200.257	21.2032
200.588	21.0463
200.92	20.9077
201.249	20.7227
201.581	20.5039
201.912	20.2998
202.243	20.1196
202.574	19.9311
202.906	19.7185
203.235	19.5133
203.567	19.3286
203.898	19.1152
204.229	18.9084
204.56	18.6933
204.89	18.4785
205.221	18.2693
205.552	18.0919
205.883	17.8922
206.213	17.7603
206.544	17.6797
206.875	17.6157
207.206	17.5069
207.535	17.3872
207.866	17.2733
208.197	17.1851
208.528	17.1001
208.858	16.9989
209.189	16.9156
209.52	16.8001
209.849	16.7204
210.18	16.6235
210.511	16.5369
210.84	16.4246
211.171	16.3289
211.502	16.2872
211.832	16.2553
212.162	16.221
212.493	16.1395
212.823	16.0033
213.153	15.8823
213.483	15.7507
213.813	15.6393
214.144	15.5266
214.473	15.3851
214.804	15.2341
215.133	15.1533
215.464	15.0829
215.795	14.9835
216.124	14.8651
216.455	14.7406
216.784	14.613
217.114	14.5187
217.443	14.4428
217.774	14.396
218.103	14.3381
218.434	14.2486
218.763	14.1754
219.093	14.111
219.422	14.0005
219.753	13.9102
220.082	13.7878
220.412	13.6711
220.741	13.502
221.072	13.3291
221.401	13.1609
221.731	12.9418
222.06	12.7324
222.391	12.5221
222.719	12.3499
223.048	12.25
223.379	12.1375
223.708	12.0477
224.038	11.9756
224.367	11.8874
224.697	11.7685
225.026	11.6743
225.355	11.5523
225.685	11.3928
226.014	11.2335
226.342	11.091
226.673	10.9625
227.001	10.8095
227.33	10.6606
227.66	10.4885
227.989	10.3053
228.318	10.1205
228.648	9.93125
228.976	9.76955
229.305	9.63378
229.635	9.51028
229.964	9.38413
230.292	9.26629
230.622	9.13308
230.951	8.98919
231.279	8.83205
231.608	8.64683
231.938	8.4584
232.266	8.27484
232.595	8.11053
232.923	7.95646
233.253	7.81681
233.582	7.682
233.91	7.57008
234.239	7.50394
234.567	7.44882
234.897	7.40696
235.225	7.29937
235.554	7.2161
235.882	7.12175
236.21	7.01426
236.54	6.89349
236.868	6.75968
237.197	6.64205
237.525	6.52043
237.853	6.38305
238.181	6.25881
238.51	6.09308
238.838	5.92581
239.168	5.7432
239.496	5.57242
239.824	5.43741
240.152	5.32143
240.48	5.26279
240.808	5.22894
241.136	5.16772
241.465	5.08468
241.793	4.88764
242.121	4.68677
242.449	4.51493
242.777	4.41389
243.105	4.34239
243.433	4.33517
243.761	4.21223
244.089	4.11762
244.417	4.02201
244.745	3.93425
245.073	3.84
245.401	3.75077
245.729	3.71516
246.057	3.6752
246.385	3.62951
246.712	3.54488
247.04	3.46411
247.368	3.46564
247.696	3.45236
248.024	3.47742
248.352	3.53356
248.68	3.56442
249.007	3.53865
249.335	3.49293
249.663	3.41243
249.991	3.33043
250.318	3.20971
250.645	3.08079
250.972	2.99223
251.3	2.95908
251.628	2.90961
251.955	2.84704
252.283	2.79513
252.611	2.73147
252.937	2.73171
253.264	2.68867
253.592	2.63293
253.92	2.61645
254.247	2.59735
254.575	2.54755
254.901	2.47274
255.228	2.41939
255.556	2.36274
255.883	2.36325
256.209	2.36859
256.537	2.35402
256.864	2.31781
257.192	2.28883
257.518	2.23713
257.845	2.18888
258.173	2.13345
258.5	2.0508
258.826	1.98293
259.153	1.93706
259.481	1.88203
259.808	1.81738
260.134	1.78546
260.461	1.76064
260.788	1.70847
261.114	1.66161
261.441	1.56847
261.769	1.49946
262.094	1.43667
262.422	1.40478
262.749	1.41977
263.075	1.46938
263.402	1.52029
263.728	1.5496
264.055	1.54335
264.382	1.54257
264.707	1.56588
265.035	1.57286
265.36	1.54867
265.687	1.48285
266.014	1.41712
266.34	1.29831
266.667	1.22371
266.993	1.19575
267.32	1.14642
267.645	1.13326
267.972	1.14079
268.298	1.12584
268.625	1.08035
268.952	1.05771
269.277	1.05003
269.604	1.0515
269.929	1.04817
270.256	1.02882
270.582	1.01196
270.907	0.978696
271.234	0.950632
271.559	0.966476
271.886	0.946839
272.212	0.925366
272.538	0.900829
272.864	0.84363
273.19	0.830767
273.516	0.825658
273.842	0.779625
274.168	0.751551
274.493	0.684853
274.82	0.734544
275.145	0.778008
275.472	0.828981
275.797	0.837968
276.122	0.818509
276.449	0.755675
276.774	0.706638
277.099	0.6295
277.425	0.747897
277.751	0.738421
278.076	0.723201
278.402	0.752315
278.727	0.795021
279.052	0.758863
279.379	0.807815
279.704	0.757881
280.029	0.776516
280.355	0.790116
280.68	0.733646
281.005	0.682274
281.33	0.665297
281.657	0.61976
281.982	0.585572
282.307	0.562226
282.632	0.54613
282.958	0.554789
283.283	0.545762
283.608	0.481147
283.932	0.427825
284.257	0.411264
284.584	0.411464
284.908	0.416321
285.233	0.315428
285.558	0.26422
285.883	0.22382
286.209	0.191371
286.534	0.116396
286.858	0.0812567
287.183	0.0760688
287.508	0.0869261
287.833	0.157779
288.157	0.139993
288.483	0.114059
288.808	0.0675715
289.133	0.0329844
289.457	0.0126371
289.782	-0.00654894
290.106	-0.0288262
290.431	-0.0526935
290.756	-0.0699215
291.08	-0.0783987
291.405	-0.0779426
291.731	-0.0624952
292.055	-0.0223936
292.38	-0.095852
292.704	-0.128583
293.029	-0.0921817
293.353	0.0394506
293.678	0.0804628
294.002	0.13602
294.326	0.175777
294.651	0.241692
294.975	0.448449
295.3	0.543637
295.624	0.592267
295.948	0.652771
296.273	0.706629
296.597	0.666675
296.921	0.57463
297.244	0.556275
297.568	0.51685
297.893	0.444664
298.217	0.372401
298.541	0.328266
298.865	0.292713
299.19	0.298227
299.514	0.333105
299.838	0.375151
300.162	0.399909
300.486	0.428617
300.809	0.482868
301.133	0.551766
301.457	0.628755
301.781	0.705136
302.105	0.772558
302.43	0.828906
302.754	0.829018
303.076	0.747366
303.4	0.642042
303.724	0.515928
304.048	0.620477
304.372	0.913801
304.695	1.05472
305.019	1.107
305.343	1.1601
305.667	1.2164
305.991	1.26827
306.313	1.30464
306.637	1.29277
306.961	1.33382
307.285	1.38369
307.607	1.44124
307.931	1.46729
308.255	1.49092
308.577	1.51269
308.901	1.52233
309.225	1.50376
309.549	1.48859
309.871	1.48029
310.195	1.46847
310.518	1.45978
310.841	1.44763
311.164	1.44015
311.488	1.48361
311.81	1.55424
312.134	1.61019
312.456	1.63749
312.78	1.64461
313.103	1.60929
313.426	1.53024
313.749	1.45147
314.073	1.35759
314.395	1.26157
314.718	1.17028
315.04	1.06898
315.364	1.00599
315.686	0.982299
316.01	1.0012
316.333	1.04342
316.655	1.09031
316.979	1.12989
317.301	1.17442
317.624	1.16548
317.946	1.13324
318.269	1.11845
318.591	1.13702
318.915	1.13171
319.237	1.1275
319.56	1.13822
319.882	1.1222
320.205	1.07841
320.527	1.05194
320.85	1.03823
321.172	1.06621
321.496	1.12289
321.817	1.15819
322.139	1.18702
322.462	1.18474
322.784	1.16067
323.107	1.13611
323.429	1.08958
323.752	1.02887
324.074	0.977677
324.396	0.923575
324.719	0.867347
325.04	0.806759
325.362	0.750138
325.685	0.710022
326.007	0.669505
326.33	0.620269
326.652	0.568479
326.973	0.540069
327.296	0.537061
327.618	0.538831
327.939	0.552761
328.261	0.560571
328.584	0.5836
328.905	0.551881
329.227	0.557529
329.55	0.597679
329.871	0.662231
330.193	0.726267
330.514	0.72486
330.837	0.687355
331.158	0.615772
331.48	0.530593
331.801	0.430817
332.124	0.343626
332.445	0.28483
332.767	0.251178
333.088	0.324125
333.409	0.366346
333.732	0.381033
334.054	0.387295
334.375	0.359478
334.696	0.353774
335.017	0.33575
335.34	0.328523
335.661	0.338662
335.983	0.345935
336.304	-0.0809619
336.625	0.176252
336.946	0.274743
337.267	0.233137
337.59	0.0897098
337.911	0.0452807
338.232	-0.0200673
338.553	-0.0431659
338.874	-0.032218
339.195	0.0319347
339.516	0.0849101
339.838	0.15757
340.159	0.248517
340.48	0.328732
340.801	0.399315
341.122	0.451134
341.443	0.500405
341.764	0.529576
341.872	0.536315
342.198	0.545858
342.524	0.570446
342.849	0.595926
343.174	0.626028
343.5	0.604558
343.826	0.582227
344.152	0.562573
344.477	0.519162
344.802	0.54947
345.127	0.565971
345.452	0.585158
345.779	0.583076
346.104	0.601697
346.429	0.576275
346.755	0.529788
347.08	0.480151
347.405	0.404984
347.73	0.343094
348.056	0.252872
348.382	0.200945
348.707	0.166535
349.032	0.139172
349.357	0.134831
349.682	0.175324
350.007	0.24796
350.332	0.301931
350.657	0.296379
350.982	0.320009
351.307	0.379894
351.632	0.457005
351.956	0.508258
352.281	0.554343
352.606	0.576475
352.933	0.558951
353.257	0.534494
353.582	0.524929
353.907	0.515575
354.232	0.491115
354.557	0.463312
354.882	0.437473
355.205	0.411365
355.53	0.38392
355.854	0.352896
356.179	0.350603
356.504	0.366801
356.829	0.366326
357.153	0.350657
357.478	0.32355
357.803	0.320275
358.127	0.322255
358.452	0.328494
358.777	0.297208
359.101	0.260249
359.426	0.260254
359.751	0.274886
360.074	0.275572
360.398	0.272765
360.723	0.277465
361.047	0.29325
361.372	0.266323
361.696	0.304683
362.021	0.3501
362.344	0.393221
362.668	0.423346
362.993	0.388041
363.317	0.374468
363.642	0.372894
363.966	0.392718
364.289	0.425889
364.613	0.46571
364.938	0.509221
365.262	0.491923
365.587	0.469361
365.909	0.423056
366.234	0.378689
366.558	0.317296
366.882	0.316843
367.205	0.311251
367.53	0.277091
367.854	0.233361
368.178	0.167791
368.501	0.106857
368.825	0.0607289
369.149	0.0385951
369.472	0.0342449
369.796	0.0551309
370.12	0.0865166
370.444	0.111987
370.767	0.141784
371.091	0.168515
371.415	0.14422
371.738	0.137169
372.062	0.134864
372.386	0.129697
372.709	0.100994
373.033	0.103471
373.355	0.125825
373.679	0.154362
374.003	0.169354
374.326	0.149827
374.65	0.112161
374.972	0.0688133
375.296	-0.00230137
375.62	-0.0791127
375.943	-0.157701
376.267	-0.207884
376.589	-0.237952
376.913	-0.248586
377.237	-0.218912
377.559	-0.167804
377.883	-0.104994
378.205	-0.0574726
378.529	-0.00171678
378.852	0.0396323
379.175	-0.00079788
379.498	-0.069514
379.821	-0.130446
380.144	-0.195953
380.467	-0.252348
380.79	-0.284509
381.113	-0.298311
381.436	-0.277387
381.759	-0.224988
382.081	-0.148735
382.405	-0.0473869
382.727	0.0535627
383.049	0.134206
383.373	0.217745
383.695	0.298615
384.019	0.363651
384.341	0.397446
384.664	0.404962
384.987	0.42675
385.309	0.458588
385.632	0.496147
385.954	0.524209
386.278	0.541779
386.6	0.552567
386.922	0.506747
387.245	0.437598
387.567	0.452477
387.889	0.440394
388.212	0.537584
388.534	0.768512
388.856	0.848038
389.18	0.874261
389.502	0.887775
389.823	0.903391
390.147	0.925354
390.469	0.934417
390.79	0.913794
391.114	0.976257
391.436	1.04691
391.757	1.12193
392.079	1.20962
392.402	1.26695
392.724	1.30659
393.046	1.34426
393.368	1.33492
393.691	1.36516
394.013	1.39933
394.334	1.3968
394.656	1.40527
394.979	1.43571
395.301	1.4512
395.622	1.4646
395.944	1.47498
396.266	1.46868
396.589	1.46267
396.91	1.46721
397.232	1.48803
397.553	1.58056
397.875	1.66277
398.196	1.72232
398.518	1.78712
398.841	1.8501
399.162	1.91776
399.484	1.98336
399.805	2.05034
400.127	2.13075
400.448	2.22464
400.77	2.2991
401.091	2.32161
401.413	2.34447
401.735	2.35183
402.057	2.37184
402.378	2.42004
402.699	2.49801
403.021	2.59537
403.342	2.69931
403.663	2.80488
403.985	2.9113
404.306	3.00499
404.627	3.08852
404.948	3.16463
405.27	3.21311
405.591	3.27272
405.912	3.40155
406.233	3.58088
406.555	3.74826
406.876	3.95543
407.197	4.09834
407.518	4.22512
407.839	4.36344
408.16	4.49305
408.481	4.63602
408.802	4.81135
409.124	4.99575
409.445	5.18732
409.766	5.35537
410.085	5.53876
410.406	5.72572
410.727	5.94415
411.048	6.19585
411.369	6.47992
411.69	6.71272
412.011	7.03356
412.332	7.2061
412.653	7.49956
412.973	7.81419
413.293	8.15092
413.614	8.45537
413.935	8.79418
414.256	9.14476
414.577	9.47265
414.896	9.77349
415.217	10.0672
415.538	10.3705
415.859	10.6613
416.18	10.9602
416.499	11.2625
416.82	11.5735
417.14	11.8937
417.461	12.1225
417.782	12.5291
418.101	12.905
418.422	13.2864
418.742	13.6913
419.063	14.1381
419.382	14.6099
419.703	15.1266
420.024	15.6682
420.343	16.2377
420.663	16.8717
420.984	17.5426
421.305	18.25
421.624	19.0143
421.944	19.818
422.265	20.6718
422.584	21.5273
422.904	22.3218
423.225	23.1179
423.544	23.8696
423.864	24.5618
424.185	25.2635
424.504	25.9718
424.824	26.6416
425.143	27.2872
425.464	27.9143
425.784	28.5117
426.103	29.0942
426.423	29.6152
426.742	30.0609
427.062	30.4026
427.383	30.6693
427.702	30.9029
428.022	31.0646
428.341	31.1389
428.661	31.1326
428.98	31.1441
429.3	31.1071
429.619	31.0035
429.939	30.8325
430.259	30.5133
430.578	30.0964
430.898	29.6294
431.217	29.1219
431.537	28.5817
431.856	28.0032
432.176	27.3922
432.494	26.7507
432.813	26.0912
433.133	25.4055
433.452	24.7127
433.772	24.0118
434.09	23.2791
434.41	22.5148
434.729	21.7502
435.049	20.9899
435.368	20.2498
435.686	19.5505
436.006	18.8756
436.325	18.1946
436.645	17.5384
436.963	16.908
437.281	16.2955
437.601	15.745
437.92	15.2397
438.238	14.6342
438.558	14.2366
438.876	13.891
439.195	13.587
439.515	13.3124
439.833	13.0578
440.151	12.7755
440.471	12.4946
440.789	12.2147
441.108	11.9457
441.427	11.6723
441.746	11.3972
442.064	11.1842
442.384	11.0038
442.702	10.7855
443.02	10.5729
443.338	10.4013
443.658	10.2649
443.976	10.1631
444.294	10.1204
444.613	10.0598
444.932	10.0222
445.25	10.0235
445.568	10.0646
445.887	10.1091
446.205	10.125
446.524	10.1518
446.842	10.1779
447.16	10.2116
447.478	10.2442
447.796	10.2458
448.114	10.2304
448.434	10.2126
448.752	10.2292
449.07	10.2718
449.388	10.3422
449.706	10.401
450.024	10.4693
450.342	10.5397
450.661	10.638
450.979	10.6681
451.297	10.6617
451.615	10.6433
451.932	10.6258
452.25	10.5282
452.568	10.4174
452.886	10.295
453.204	10.2076
453.521	10.1161
453.839	10.0334
454.157	9.89061
454.475	9.72097
454.792	9.51057
455.11	9.30624
455.428	9.19574
455.746	9.0899
456.063	8.97483
456.381	8.81888
456.699	8.61065
457.016	8.45736
457.334	8.30684
457.652	8.16029
457.969	8.05328
458.287	7.97005
458.604	7.88549
458.922	7.79123
459.239	7.70474
459.557	7.60936
459.875	7.52427
460.192	7.45253
460.51	7.38717
460.827	7.31587
461.145	7.22115
461.461	7.16223
461.778	7.13674
462.095	7.11576
462.413	7.06141
462.73	7.05167
463.048	7.03202
463.365	7.00571
463.682	6.98232
463.998	6.96241
464.316	6.93484
464.633	6.92031
464.95	6.92001
465.268	6.93506
465.583	6.98294
465.901	7.12104
466.218	7.29534
466.535	7.41117
466.853	7.50633
467.168	7.59756
467.486	7.69684
467.803	7.80998
468.12	7.94717
468.436	8.11008
468.753	8.28725
469.07	8.4936
469.387	8.71785
469.703	8.94739
470.02	9.18489
470.337	9.43667
470.654	9.67421
470.97	9.91809
471.287	10.1512
471.604	10.3749
471.919	10.5853
472.236	10.767
472.553	10.7585
472.869	11.1011
473.186	11.2905
473.503	11.4953
473.818	11.726
474.135	12.0003
474.452	12.2907
474.768	12.6124
475.085	12.9757
475.4	13.3832
475.717	13.8363
476.034	14.3304
476.349	14.811
476.666	15.2877
476.981	15.7775
477.298	16.2499
477.614	16.7207
477.93	17.2034
478.247	17.6837
478.563	18.1817
478.879	18.6773
479.195	19.1573
479.511	19.6539
479.827	20.1562
480.143	20.6806
480.458	21.2229
480.775	21.7974
481.09	22.4244
481.407	23.1033
481.722	23.8149
482.039	24.5131
482.354	25.2094
482.671	25.8846
482.986	26.5893
483.302	27.2535
483.617	27.9354
483.932	28.59
484.249	29.2328
484.564	29.8613
484.881	30.4736
485.196	31.0599
485.512	31.6078
485.827	32.162
486.142	32.6678
486.459	33.0839
486.774	33.3906
487.089	33.7061
487.405	34.0069
487.72	34.2799
488.036	34.5434
488.351	34.8067
488.666	35.0465
488.982	35.1921
489.297	35.3011
489.612	35.4005
489.927	35.4691
490.243	35.4562
490.558	35.3888
490.873	35.2039
491.189	34.953
491.504	34.6604
491.819	34.3398
492.133	33.9485
492.45	33.4997
492.764	33.0556
493.079	32.6273
493.395	32.2536
493.71	31.8296
494.025	31.4047
494.339	30.9249
494.654	30.4418
494.97	29.9708
495.285	29.5008
495.599	29.041
495.914	28.5736
496.228	28.0815
496.544	27.5864
496.859	27.0513
497.174	26.5185
497.488	26.0075
497.803	25.5355
498.117	25.0515
498.432	24.5424
498.748	24.049
499.062	23.5841
499.377	23.1329
499.691	22.7172
500.005	22.3037
500.32	21.8937
500.634	21.491
500.949	21.1739
501.263	20.7957
501.577	20.3776
501.893	20.0034
502.208	19.6176
502.522	19.2461
502.836	18.762
503.151	18.3164
503.465	17.8402
503.779	17.5214
504.093	17.2623
504.408	17.0283
504.722	16.7187
505.036	16.4775
505.35	16.1306
505.665	15.7915
505.979	15.4431
506.293	15.1071
506.607	14.7658
506.921	14.5493
507.235	14.3683
507.55	14.2114
507.864	14.0392
508.178	13.8712
508.49	13.7204
508.805	13.5915
509.119	13.4641
509.433	13.3497
509.747	13.2689
510.061	13.1977
510.375	13.1349
510.689	13.0538
511.003	12.9435
511.317	12.8352
511.629	12.7445
511.943	12.6515
512.257	12.5692
512.571	12.4866
512.885	12.3851
513.199	12.1937
513.511	11.9753
513.825	11.7155
514.139	11.4491
514.453	11.1727
514.767	10.9117
515.079	10.6773
515.393	10.4086
515.707	10.1325
516.021	9.8552
516.334	9.57525
516.647	9.32285
516.96	9.09328
517.274	8.91572
517.588	8.79808
517.9	8.7375
518.214	8.65979
518.527	8.59557
518.84	8.50027
519.153	8.4133
519.467	8.32925
519.781	8.23851
520.093	8.16059
520.406	8.11198
520.72	8.07763
521.032	8.05019
521.346	8.0228
521.659	8.00548
521.971	7.97755
522.285	7.94471
522.597	7.8873
522.91	7.79806
523.224	7.67604
523.536	7.56684
523.849	7.47338
524.163	7.40015
524.475	7.35391
524.788	7.32933
525.1	7.2773
525.414	7.22893
525.726	7.20994
526.039	7.20564
526.352	7.14568
526.664	7.06721
526.978	6.98336
527.29	6.88284
527.603	6.83205
527.915	6.76598
528.228	6.70227
528.54	6.62203
528.853	6.56095
529.165	6.57046
529.478	6.5877
529.79	6.59571
530.103	6.55367
530.415	6.489
530.728	6.43761
531.04	6.35213
531.353	6.21628
531.665	6.15596
531.976	6.0579
532.29	5.9594
532.601	5.85313
532.914	5.77392
533.226	5.71374
533.539	5.66303
533.851	5.63429
534.162	5.65732
534.475	5.66489
534.787	5.66154
535.099	5.6239
535.411	5.58409
535.723	5.53123
536.036	5.47457
536.348	5.41512
536.659	5.37328
536.972	5.33911
537.283	5.30646
537.595	5.27184
537.908	5.23645
538.219	5.19571
538.531	5.12983
538.842	5.05667
539.155	5.01019
539.466	4.97169
539.778	4.94709
540.091	4.92845
540.402	4.92342
540.713	4.90942
541.025	4.89427
541.337	4.86572
541.649	4.83727
541.96	4.82819
542.271	4.80153
542.582	4.77784
542.895	4.69706
543.206	4.51798
543.518	4.35798
543.829	4.23557
544.14	4.13317
544.453	4.03962
544.764	3.9914
545.075	3.97852
545.386	3.99805
545.697	3.97596
546.008	3.96763
546.32	3.95516
546.632	3.95053
546.943	3.96183
547.254	3.97882
547.565	3.99899
547.876	3.97888
548.187	3.88647
548.498	3.75144
548.81	3.62795
549.12	3.48154
549.431	3.39311
549.744	3.31941
550.055	3.23902
550.366	3.16516
550.677	3.19295
550.988	3.14389
551.299	3.12151
551.609	3.11146
551.92	3.1077
552.231	3.09933
552.542	3.07457
552.853	3.05688
553.164	3.03915
553.475	2.99346
553.785	2.92669
554.096	2.84459
554.407	2.74492
554.718	2.60692
555.029	2.47853
555.339	2.36013
555.649	2.27183
555.959	2.19807
556.27	2.15214
556.581	2.13995
556.891	2.1554
557.202	2.18003
557.513	2.19968
557.823	2.18918
558.134	2.22985
558.445	2.28146
558.754	2.30804
559.065	2.29985
559.375	2.26768
559.686	2.21543
559.996	2.16924
560.307	2.14587
560.617	2.11788
560.926	2.10846
561.237	2.0806
561.547	2.04956
561.858	2.00262
562.168	1.96685
562.477	1.92989
562.788	1.88848
563.098	1.84283
563.409	1.7892
563.718	1.72287
564.028	1.61947
564.339	1.47558
564.649	1.3353
564.958	1.26302
565.268	1.21545
565.579	1.19924
565.889	1.19779
566.198	1.21765
566.508	1.24758
566.818	1.25073
567.127	1.26109
567.437	1.24506
567.748	1.2586
568.057	1.2803
568.367	1.29956
568.677	1.30689
568.986	1.27695
569.296	1.29062
569.606	1.29654
569.915	1.28987
570.225	1.22617
570.535	1.17443
570.844	1.13166
571.154	1.10401
571.463	1.07162
571.773	1.04543
572.083	1.03108
572.391	1.03928
572.701	1.03079
573.01	1.02084
573.32	1.02241
573.629	1.00427
573.939	0.997192
574.247	0.981484
574.557	0.966091
574.867	0.964288
575.176	0.969751
575.486	0.969568
575.794	0.951888
576.104	0.913816
576.412	0.88203
576.722	0.856609
577.031	0.86055
577.339	0.965088
577.649	1.02315
577.957	1.06967
578.267	1.09936
578.576	1.11453
578.885	1.11507
579.194	1.12893
579.504	1.17118
579.812	1.17013
580.12	1.18211
580.43	1.22956
580.738	1.28265
581.048	1.36099
581.356	1.35864
581.665	1.339
581.974	1.33151
582.282	1.33687
582.591	1.34191
582.9	1.37527
583.208	1.45813
583.517	1.4969
583.826	1.46503
584.134	1.47017
584.443	1.45584
584.752	1.45687
585.06	1.48165
585.368	1.53092
585.678	1.54419
585.986	1.54056
586.294	1.54213
586.602	1.56794
586.912	1.61785
587.22	1.70435
587.528	1.77215
587.836	1.85186
588.145	1.9486
588.453	2.0558
588.761	2.14742
589.069	2.24697
589.378	2.35012
589.686	2.44441
589.994	2.53702
590.302	2.64078
590.61	2.75096
590.919	2.84673
591.227	2.93705
591.535	3.03283
591.843	3.14425
592.151	3.26463
592.459	3.37475
592.766	3.47731
593.076	3.58683
593.383	3.69114
593.691	3.80704
593.999	3.92787
594.307	4.05893
594.615	4.18176
594.922	4.41024
595.23	4.60448
595.538	4.74333
595.845	4.3897
596.154	4.64721
596.462	4.78078
596.77	4.97598
597.077	5.13526
597.385	5.27145
597.693	5.47595
598	5.57736
598.308	5.64756
598.615	5.88669
598.923	6.0327
599.231	6.13258
599.538	6.21739
599.846	6.30965
600.153	6.40158
600.461	6.46662
600.768	6.52376
601.076	6.58659
601.383	6.66486
601.689	6.76594
601.997	6.82826
602.304	6.91398
602.611	7.00715
602.919	7.04418
603.226	7.02887
603.534	7.045
603.841	7.0453
604.148	7.05813
604.456	7.10347
604.763	7.12826
605.069	7.13299
605.376	7.10449
605.683	7.07916
605.991	7.03371
606.298	6.96852
606.605	6.89928
606.911	6.82914
607.218	6.76424
607.526	6.6915
607.833	6.6518
608.14	6.60873
608.446	6.57721
608.753	6.54522
609.06	6.50966
609.367	6.46283
609.674	6.4402
609.98	6.42241
610.287	6.40254
610.594	6.36748
610.901	6.33862
611.207	6.32028
611.514	6.29088
611.821	6.23371
612.127	6.15796
612.434	6.06996
612.741	6.00199
613.048	5.96077
613.353	5.94251
613.66	5.94235
613.967	5.93788
614.273	5.96455
614.58	5.99798
614.887	6.045
615.192	6.08569
615.499	6.10773
615.805	6.13297
616.111	6.12891
616.418	6.16374
616.724	6.21066
617.031	6.26966
617.337	6.33309
617.643	6.36406
617.95	6.40752
618.255	6.47274
618.562	6.57607
618.867	6.66689
619.174	6.76066
619.481	6.8537
619.786	6.97356
620.093	7.11211
620.398	7.24104
620.705	7.3621
621.01	7.46185
621.316	7.52852
621.622	7.60272
621.928	7.65173
622.234	7.74115
622.54	7.92297
622.845	8.0849
623.152	8.28523
623.457	8.52232
623.764	8.77247
624.069	9.01209
624.374	9.25631
624.68	9.47497
624.986	9.68526
625.292	9.94476
625.597	10.2303
625.904	10.4712
626.209	10.6278
626.514	10.8132
626.82	10.9476
627.125	11.0331
627.43	11.1545
627.737	11.2979
628.042	11.4687
628.348	11.6556
628.653	11.7797
628.958	11.869
629.264	11.9161
629.569	11.9509
629.874	11.9735
630.18	11.9982
630.485	12.022
630.79	12.0155
631.095	12.0029
631.401	12.017
631.706	12.0515
632.011	12.1095
632.316	12.1348
632.622	12.2423
632.927	12.4431
633.231	12.6561
633.536	12.8669
633.842	13.0194
633.986	13.0663
634.295	13.0384
634.605	12.8832
634.914	12.5925
635.224	12.2199
635.533	11.7584
635.843	11.2087
636.152	10.6109
636.462	10.0321
636.771	9.47653
637.08	8.98665
637.39	8.52823
637.699	8.19043
638.009	7.92713
638.318	7.78469
638.628	7.65055
638.937	7.68366
639.246	7.66002
639.556	7.65699
639.865	7.67055
640.173	7.69139
640.483	7.70931
640.792	7.75105
641.102	7.80473
641.411	7.86641
641.72	7.91656
642.03	7.94329
642.338	7.91681
642.647	7.80985
642.955	7.62894
643.265	7.39873
643.574	7.08614
643.883	6.75249
644.192	6.38974
644.501	6.01767
644.809	5.618
645.119	5.2389
645.428	4.87375
645.736	4.48069
646.045	4.10588
646.355	3.78861
646.663	3.52217
646.972	3.22232
647.28	2.9724
647.588	2.7625
647.898	2.6435
648.207	2.50939
648.515	2.37562
648.823	2.26535
649.132	2.13434
649.441	2.01557
649.75	1.88587
650.058	1.77072
650.366	1.69532
650.674	1.61809
650.983	1.53456
651.292	1.45957
651.601	1.38723
651.909	1.30845
652.217	1.20351
652.525	1.09543
652.833	0.984446
653.142	0.882215
653.45	0.798857
653.758	0.72563
654.068	0.673315
654.376	0.639492
654.684	0.623496
654.992	0.60686
655.3	0.590423
655.608	0.568305
655.916	0.566783
656.224	0.563937
656.532	0.57246
656.84	0.507102
657.148	0.457108
657.456	0.469769
657.764	0.498987
658.072	0.528983
658.38	0.53514
658.688	0.517194
658.996	0.434542
659.304	0.356699
659.612	0.31526
659.92	0.269335
660.228	0.254589
660.536	0.273276
660.844	0.381132
661.151	0.375699
661.459	0.336896
661.767	0.274323
662.075	0.192223
662.381	0.118598
662.689	0.0595004
662.997	0.0261094
663.305	0.0269577
663.612	0.0436311
663.92	0.0742931
664.228	0.111252
664.535	0.143453
664.843	0.169029
665.149	0.221972
665.457	0.278118
665.765	0.339401
666.072	0.385525
666.38	0.40172
666.688	0.420776
666.994	0.447617
667.302	0.469348
667.609	0.476455
667.917	0.479957
668.224	0.468345
668.53	0.433182
668.838	0.397663
669.146	0.401412
669.453	0.408773
669.76	0.423586
670.067	0.451346
670.374	0.493182
670.682	0.516214
670.989	0.524261
671.295	0.535232
671.602	0.561818
671.91	0.595289
672.216	0.59862
672.523	0.603615
672.831	0.605444
673.138	0.63168
673.444	0.729888
673.751	0.784538
674.059	0.847921
674.365	0.936148
674.672	1.04465
674.979	1.15915
675.285	1.23653
675.592	1.31749
675.898	1.42193
676.205	1.55821
676.513	1.72283
676.818	1.91951
677.126	2.16684
677.433	2.43171
677.739	2.70842
678.046	2.97804
678.352	3.22781
678.659	3.53175
678.964	3.89894
679.272	4.33302
679.579	4.78275
679.884	5.24079
680.191	5.78326
680.497	6.3887
680.804	7.03086
681.11	7.75885
681.417	8.69987
681.722	9.54899
682.029	10.449
682.335	11.344
682.642	12.2198
682.948	12.9486
683.255	13.6706
683.56	14.3321
683.867	14.9203
684.173	15.3342
684.479	15.6366
684.785	15.8253
685.092	15.8982
685.397	15.8225
685.703	15.5806
686.01	15.2202
686.315	14.7058
686.622	14.1649
686.927	13.59
687.234	13.0554
687.539	12.4729
687.845	11.8869
688.152	11.3148
688.457	10.7335
688.762	10.218
689.069	9.74241
689.374	9.3659
689.681	9.06106
689.986	8.8015
690.292	8.61496
690.598	8.42143
690.903	8.26979
691.209	8.14922
691.514	8.00164
691.82	7.87056
692.126	7.78982
692.431	7.77607
692.737	7.80906
693.043	7.89316
693.348	8.02213
693.653	8.17284
693.959	8.32409
694.265	8.53673
694.57	8.76183
694.875	9.01835
695.181	9.31039
695.486	9.63358
695.791	10.0082
696.096	10.4146
696.403	10.7914
696.708	11.163
697.013	11.5272
697.318	11.7463
697.623	12.2348
697.929	12.8213
698.234	13.2694
698.539	13.7349
698.844	14.2528
699.149	14.7191
699.454	15.1553
699.759	15.6734
700.065	16.1898
700.37	16.7202
700.675	17.2862
700.98	17.9014
701.284	18.5564
701.589	19.242
701.894	19.9658
702.199	20.7005
702.504	21.4606
702.81	22.2468
703.115	23.0442
703.419	23.8288
703.724	24.5965
704.029	25.3149
704.333	25.9967
704.638	26.6756
704.943	27.2766
705.247	27.8508
705.552	28.4062
705.857	28.9545
706.161	29.4931
706.466	30.0081
706.771	30.4953
707.075	30.9393
707.38	31.3784
707.684	31.74
707.989	32.0114
708.293	32.1634
708.598	32.1873
708.903	32.072
709.207	31.8427
709.512	31.484
709.815	31.022
710.119	30.4215
710.424	29.6868
710.728	28.8582
711.032	27.953
711.337	26.9666
711.641	25.9087
711.946	24.8334
712.25	23.7543
712.554	22.6279
712.857	21.5584
713.162	20.5254
713.466	19.5203
713.77	18.5669
714.075	17.6801
714.379	16.825
714.682	16.012
714.986	15.2555
715.29	14.5376
715.595	13.8667
715.899	13.238
716.202	12.6311
716.506	12.0575
716.81	11.4975
717.114	10.949
717.419	10.398
717.721	9.91533
718.026	9.46688
718.33	9.02934
718.634	8.6423
718.937	8.2964
719.241	8.00336
719.545	7.74378
719.847	7.49765
720.152	7.30559
720.456	7.14445
720.76	6.98491
721.062	6.81221
721.366	6.64725
721.67	6.47685
721.973	6.32432
722.277	6.19364
722.581	6.09618
722.883	6.03248
723.187	6.00401
723.491	5.98662
723.794	5.95217
724.098	5.90604
724.4	5.79838
724.704	5.72218
725.008	5.67395
725.31	5.64754
725.614	5.60088
725.917	5.54075
726.221	5.4788
726.524	5.41045
726.827	5.33232
727.131	5.26286
727.433	5.22572
727.737	5.19917
728.039	5.17495
728.343	5.13583
728.645	5.09217
728.949	5.0113
729.251	4.93952
729.555	4.85348
729.857	4.78922
730.161	4.73705
730.463	4.67391
730.767	4.59802
731.069	4.53214
731.373	4.44462
731.675	4.35385
731.979	4.29662
732.281	4.23194
732.584	4.20164
732.886	4.23148
733.189	4.28087
733.492	4.3488
733.794	4.411
734.098	4.46144
734.4	4.49676
734.703	4.4492
735.005	4.45168
735.307	4.45279
735.611	4.44746
735.913	4.43579
736.215	4.3837
736.518	4.31917
736.82	4.25717
737.122	4.20121
737.426	4.14412
737.728	4.0758
738.03	4.0083
738.333	3.96181
738.635	3.91122
738.937	3.84153
739.24	3.73635
739.542	3.61036
739.844	3.48093
740.147	3.33203
740.449	3.2006
740.751	3.06863
741.053	2.94382
741.356	2.83735
741.658	2.7499
741.96	2.68621
742.262	2.63994
742.565	2.58901
742.866	2.50911
743.168	2.42634
743.47	2.33643
743.772	2.24913
744.075	2.17915
744.377	2.13232
744.678	2.10979
744.98	2.14713
745.282	2.1862
745.583	2.25867
745.886	2.3094
746.188	2.40257
746.49	2.51186
746.791	2.60055
747.093	2.69044
747.394	2.79581
747.696	2.91176
747.999	3.04926
748.3	3.19161
748.602	3.33889
748.904	3.49734
749.205	3.63393
749.506	3.77131
749.808	3.88144
750.109	3.97002
750.411	4.06915
750.712	4.19592
751.014	4.38824
751.315	4.61757
751.617	4.84487
751.918	5.10227
752.219	5.40902
752.521	5.75562
752.822	6.14315
753.124	6.54946
753.425	6.95847
753.726	7.34908
754.028	7.65866
754.329	7.92785
754.63	8.1135
754.932	8.34027
755.233	8.47531
755.534	8.49396
755.835	8.36851
756.137	8.15847
756.438	7.8254
756.739	7.52848
757.04	7.21021
757.341	6.85565
757.643	6.49259
757.944	6.15133
758.243	5.81444
758.545	5.46501
758.846	5.10489
759.147	4.70922
759.448	4.37134
759.749	4.06072
760.05	3.74961
760.351	3.43095
760.651	3.14943
760.952	2.90362
761.253	2.69821
761.554	2.52194
761.855	2.38115
762.155	2.28697
762.456	2.21029
762.757	2.13809
763.058	2.08179
763.358	2.03752
763.658	1.98853
763.959	1.94743
764.26	1.91433
764.561	1.88448
764.86	1.85705
765.161	1.83815
765.462	1.84019
765.763	1.87479
766.062	1.97834
766.363	2.08148
766.664	2.16869
766.963	2.29328
767.264	2.41121
767.565	2.53934
767.864	2.67899
768.165	2.81723
768.466	2.9443
768.765	3.07732
769.066	3.21317
769.367	3.35961
769.666	3.51495
769.967	3.64328
770.267	3.68198
770.567	3.72251
770.867	3.8
771.167	3.90142
771.467	4.19247
771.768	4.36607
772.067	4.49819
772.368	4.62672
772.667	4.766
772.967	4.91637
773.268	5.06211
773.567	5.15196
773.868	5.18271
774.167	5.19313
774.467	5.19765
774.766	5.18343
775.067	5.1873
775.366	5.22151
775.666	5.28583
775.965	5.33325
776.266	5.38115
776.565	5.42887
776.865	5.47875
777.164	5.47308
777.465	5.47151
777.764	5.42814
778.064	5.41618
778.363	5.40362
778.663	5.39176
778.962	5.37783
779.261	5.37828
779.562	5.39081
779.86	5.42381
780.161	5.43827
780.46	5.38077
780.759	5.3311
781.059	5.29276
781.358	5.24139
781.658	5.18602
781.957	5.14164
782.255	5.1137
782.556	5.07425
782.854	5.05967
783.153	5.06044
783.453	5.09099
783.752	5.10235
784.051	5.16819
784.351	5.22561
784.65	5.35916
784.948	5.42344
785.248	5.47332
785.547	5.52911
785.846	5.59755
786.145	5.66287
786.445	5.73454
786.743	5.79186
787.042	5.88041
787.34	5.95364
787.64	5.94553
787.939	5.90039
788.238	5.77826
788.536	5.50728
788.836	5.61144
789.135	5.49213
789.433	5.31638
789.732	5.19458
790.03	5.13081
790.33	5.04357
790.629	4.90153
790.927	4.79947
791.225	4.68635
791.524	4.58018
791.822	4.50946
792.122	4.47858
792.421	4.44615
792.719	4.19818
793.017	4.13227
793.316	4.1674
793.614	4.23812
793.912	4.35352
794.211	4.3879
794.51	4.40341
794.809	4.37849
795.107	4.30511
795.405	4.24697
795.704	4.23566
796.002	4.1782
796.3	4.07657
796.598	3.96979
796.897	3.91236
797.195	3.90384
797.493	3.87304
797.791	3.88915
798.089	3.91991
798.388	3.97731
798.686	4.02868
798.984	4.0893
799.282	4.16832
799.58	4.2475
799.878	4.286
800.176	4.31224
800.475	4.3414
800.773	4.36672
801.071	4.40227
801.369	4.44341
801.667	4.51609
801.965	4.62403
802.263	4.726
802.561	4.87706
802.857	5.06307
803.155	5.22097
803.453	5.38751
803.751	5.56105
804.049	5.76643
804.347	5.97486
804.645	6.20722
804.943	6.41362
805.24	6.61298
805.538	6.80362
805.835	6.99471
806.133	6.96053
806.431	7.36871
806.729	7.66191
807.025	7.97532
807.323	8.23315
807.621	8.39247
807.919	8.12152
808.217	8.72348
808.513	8.98158
808.811	9.19497
809.109	9.34511
809.406	9.51345
809.703	9.6272
810	9.80018
810.298	9.94679
810.596	10.1204
810.892	10.2348
811.19	10.3309
811.487	10.3569
811.785	10.411
812.081	10.4155
812.379	10.4031
812.677	10.3891
812.973	10.3956
813.27	10.407
813.568	10.4355
813.864	10.4714
814.162	10.4806
814.459	10.4383
814.755	10.3867
815.053	10.3383
815.349	10.3021
815.646	10.2744
815.944	10.2428
816.24	10.1834
816.537	10.1105
816.835	10.0309
817.131	9.98682
817.428	9.9724
817.724	9.94467
818.022	9.92413
818.318	9.92484
818.615	9.97056
818.911	9.98061
819.209	10.0074
819.506	10.0393
819.802	10.0956
820.099	10.1242
820.395	10.1595
820.692	10.1947
820.988	10.2438
821.286	10.3006
821.581	10.3547
821.879	10.3315
822.175	10.3083
822.472	10.2625
822.768	10.1991
823.063	10.125
823.361	10.0461
823.656	10.0634
823.954	10.1466
824.249	10.1829
824.547	10.245
824.842	10.2761
825.138	10.2713
825.435	10.2632
825.731	10.2692
826.028	10.3774
826.324	10.4084
826.619	10.4832
826.916	10.6002
827.212	10.7422
827.508	10.9081
827.805	11.0549
828.1	11.1799
828.396	11.3086
828.693	11.4236
828.988	11.4777
829.284	11.5311
829.581	11.5789
829.876	11.6353
830.172	11.7173
830.469	11.7979
830.764	11.8665
831.06	11.9346
831.355	12.0109
831.652	12.105
831.948	12.166
832.243	12.1981
832.539	12.2396
832.836	12.3241
833.131	12.4265
833.426	12.5543
833.722	12.6976
834.017	12.8798
834.314	13.0292
834.609	13.1401
834.905	13.2352
835.2	13.3535
835.495	13.4589
835.792	13.5392
836.087	13.5856
836.383	13.6475
836.678	13.7466
836.973	13.8766
837.268	14.0114
837.564	14.1707
837.86	14.3589
838.156	14.5659
838.451	14.7206
838.746	14.8676
839.041	15.0427
839.336	15.1564
839.632	15.2389
839.927	15.2881
840.222	15.329
840.517	15.3926
840.812	15.4568
841.107	15.525
841.402	15.595
841.697	15.6179
841.992	15.6395
842.288	15.7381
842.584	15.8072
842.879	15.8635
843.174	15.8549
843.468	15.8748
843.763	15.9093
844.058	15.947
844.353	15.9572
844.648	15.963
844.943	15.9149
845.238	15.848
845.532	15.7665
845.827	15.6781
846.122	15.5717
846.417	15.4596
846.712	15.3595
847.007	15.2798
847.302	15.2185
847.597	15.2079
847.892	15.2052
848.185	15.1832
848.48	15.1698
848.775	15.1415
849.069	14.9531
849.364	14.754
849.659	14.6703
849.954	14.8082
850.247	15.0884
850.542	15.1796
850.837	15.1609
851.131	15.1627
851.426	15.157
851.719	15.1664
852.014	15.1562
852.309	15.133
852.603	15.0879
852.898	15.0246
853.191	14.9387
853.486	14.8283
853.781	14.7111
854.075	14.6051
854.368	14.5184
854.663	14.4501
854.958	14.3911
855.252	14.3542
855.545	14.3275
855.84	14.2925
856.134	14.2335
856.427	14.156
856.722	14.1167
857.016	14.0375
857.31	13.9494
857.604	13.8759
857.898	13.7949
858.192	13.6923
858.486	13.5924
858.78	13.4921
859.073	13.3535
859.368	13.2365
859.662	13.1526
859.955	13.0722
860.25	13.0142
860.543	12.9688
860.837	12.924
861.131	12.8507
861.424	12.7506
861.719	12.6485
862.011	12.5462
862.306	12.49
862.599	12.4147
862.893	12.3971
863.186	12.3617
863.48	12.2958
863.773	12.2492
864.067	12.1789
864.36	12.0995
864.654	11.98
864.947	11.8746
865.241	11.7751
865.534	11.6315
865.828	11.5703
866.121	11.512
866.415	11.4139
866.708	11.3065
867.002	11.1837
867.294	11.0728
867.588	10.9654
867.881	10.8511
868.175	10.7177
868.468	10.6185
868.76	10.52
869.055	10.4487
869.347	10.3742
869.641	10.3514
869.934	10.3118
870.226	10.2794
870.52	10.2502
870.813	10.205
871.105	10.1748
871.399	10.1687
871.692	10.1802
871.984	10.1906
872.278	10.1515
872.571	10.0792
872.863	9.96156
873.157	9.8483
873.45	9.74703
873.742	9.64624
874.035	9.53643
874.328	9.42408
874.621	9.33048
874.913	9.24853
875.207	9.19897
875.499	9.14526
875.792	9.0954
876.084	9.01775
876.378	8.96283
876.67	8.92508
876.963	8.91223
877.255	8.9073
877.547	8.87183
877.841	8.83805
878.133	8.79081
878.426	8.73722
878.718	8.67372
879.01	8.61459
879.302	8.54928
879.596	8.44708
879.888	8.33216
880.18	8.25226
880.473	8.22001
880.765	8.22186
881.057	8.24337
881.349	8.26395
881.643	8.26524
881.935	8.23133
882.227	8.20702
882.519	8.18312
882.811	8.13472
883.103	8.07461
883.395	8.01994
883.687	7.96099
883.979	7.8913
884.271	7.80647
884.564	7.7371
884.856	7.68519
885.148	7.65908
885.44	7.60897
885.732	7.5587
886.024	7.52137
886.316	7.4889
886.608	7.50452
886.899	7.52727
887.191	7.55715
887.483	7.58762
887.775	7.6068
888.067	7.65572
888.359	7.72891
888.651	7.79261
888.943	7.82227
889.235	7.84589
889.527	7.85751
889.818	7.87279
890.11	7.8742
890.402	7.87849
890.692	7.89971
890.984	7.92157
891.276	7.97183
891.568	8.03101
891.86	8.07823
892.151	8.09622
892.443	8.1079
892.735	8.11315
893.025	8.08642
893.317	8.06648
893.608	8.06224
893.9	8.03965
894.192	8.00543
894.483	8.04102
894.774	8.06946
895.065	8.12705
895.357	8.13955
895.649	8.12374
895.939	8.11379
896.23	8.10225
896.522	8.09404
896.814	8.09187
897.104	8.08521
897.395	8.0683
897.687	8.01428
897.978	7.93661
898.269	7.85203
898.56	7.76245
898.852	7.66693
899.142	7.57125
899.433	7.49984
899.725	7.45037
900.016	7.41397
900.306	7.38933
900.597	7.37584
900.889	7.38109
901.179	7.40444
901.47	7.44293
901.76	7.49678
902.052	7.54772
902.343	7.5805
902.633	7.58076
902.924	7.54793
903.216	7.49557
903.506	7.41072
903.797	7.29498
904.087	7.16897
904.378	7.03814
904.668	6.93356
904.959	6.85519
905.25	6.78033
905.54	6.72224
905.831	6.70958
906.121	6.68641
906.413	6.63908
906.702	6.58181
906.994	6.52453
907.283	6.48288
907.574	6.45051
907.864	6.42934
908.155	6.3744
908.445	6.31996
908.736	6.28202
909.026	6.19682
909.317	6.10512
909.607	6.03289
909.896	5.98336
910.188	5.93815
910.477	5.92505
910.768	5.91777
911.058	6.02859
911.349	6.16385
911.638	6.39876
911.928	6.71139
912.223	6.9954
912.518	7.22795
912.812	7.23993
913.107	7.14717
913.402	6.8463
913.695	6.53279
913.99	6.15143
914.285	5.88302
914.579	5.56253
914.874	5.40209
915.169	5.33433
915.462	5.3501
915.757	5.27649
916.051	5.19672
916.345	5.15552
916.64	5.18092
916.934	5.19063
917.229	5.22543
917.522	5.25562
917.817	5.34088
918.112	5.3439
918.405	5.3149
918.7	5.21339
918.993	5.08946
919.288	4.97864
919.581	4.87493
919.876	4.82053
920.169	4.78003
920.464	4.76369
920.757	4.76042
921.052	4.76592
921.345	4.75528
921.64	4.76261
921.933	4.77294
922.228	4.74201
922.521	4.67884
922.816	4.59171
923.109	4.49888
923.404	4.43642
923.697	4.37495
923.99	4.32349
924.285	4.27193
924.578	4.23766
924.872	4.18044
925.165	4.13234
925.459	4.07087
925.753	4.00366
926.046	3.90977
926.341	3.81767
926.634	3.75388
926.927	3.69999
927.221	3.62067
927.514	3.5513
927.807	3.54411
928.102	3.57309
928.395	3.66014
928.688	3.74053
928.982	3.84053
929.275	3.89797
929.568	3.87324
929.862	3.82023
930.155	3.76121
930.448	3.69544
930.743	3.65665
931.036	3.64544
931.328	3.63716
931.621	3.61809
931.916	3.60826
932.208	3.61818
932.501	3.66011
932.794	3.74789
933.088	3.86034
933.381	3.96499
933.674	4.00244
933.967	4.01397
934.261	4.00473
934.554	4.01556
934.847	4.03411
935.139	4.06523
935.432	4.05709
935.725	3.99703
936.019	3.91701
936.312	3.84599
936.604	3.79967
936.897	3.73462
937.19	3.68357
937.482	3.63126
937.776	3.54359
938.069	3.49567
938.362	3.45644
938.654	3.43681
938.947	3.43871
939.24	3.42079
939.532	3.3512
939.825	3.28484
940.117	3.20167
940.41	3.08383
940.704	2.97316
940.996	2.83695
941.289	2.8226
941.581	2.79196
941.874	2.72725
942.166	2.62244
942.459	2.54566
942.751	2.4424
943.044	2.3214
943.336	2.14356
943.629	2.01146
943.921	1.89385
944.213	1.82859
944.506	1.74609
944.798	1.64592
945.091	1.55114
945.383	1.46176
945.675	1.51324
945.968	1.52239
946.26	1.45222
946.552	1.40689
946.843	1.3432
947.135	1.31266
947.428	1.19718
947.72	1.08958
948.012	0.971416
948.305	0.843677
948.597	0.709459
948.889	0.575305
949.181	0.441298
949.473	0.296152
949.764	0.157009
950.056	0.0442891
950.349	-0.0577622
950.641	-0.130358
950.933	-0.19162
951.225	-0.163521
951.517	-0.127653
951.808	-0.098377
952.1	-0.0761748
952.392	-0.0742605
952.684	-0.0773214
952.976	-0.0796969
953.267	-0.0458762
953.559	-0.0175227
953.851	0.0204845
954.143	0.0532685
954.434	0.0816217
954.726	0.122265
955.018	0.174199
955.31	0.229157
955.6	0.25297
955.892	0.311504
956.184	0.377441
956.476	0.465163
956.767	0.554476
957.058	0.652686
957.35	0.767206
957.641	0.808908
957.933	0.813845
958.225	0.865766
958.515	0.957067
958.807	1.06478
959.099	1.24671
959.389	1.41512
959.681	1.56663
959.973	1.71255
960.263	1.83865
960.555	1.98038
960.847	2.13068
961.137	2.29735
961.429	2.46495
961.719	2.61769
962.011	2.79394
962.303	2.98609
962.593	3.15998
962.885	3.30397
963.175	3.4614
963.467	3.60606
963.758	3.72003
964.049	3.8611
964.34	4.01505
964.63	4.11508
964.922	4.19786
965.212	4.2749
965.504	4.3513
965.794	4.4445
966.086	4.49672
966.376	4.55172
966.667	4.59125
966.958	4.58913
967.249	4.55506
967.539	4.50104
967.831	4.4195
968.121	4.3355
968.412	4.17362
968.702	4.02416
968.992	3.87452
969.284	3.73537
969.574	3.59135
969.865	3.4478
970.155	3.31407
970.447	3.22264
970.737	3.15895
971.027	3.17369
971.318	3.14823
971.608	3.13666
971.898	3.0728
972.189	2.98757
972.479	2.91885
972.771	2.92769
973.061	2.60191
973.35	2.90527
973.642	3.02693
973.932	3.0246
974.221	3.00508
974.513	3.00092
974.803	2.96513
975.092	2.91985
975.382	2.82267
975.673	2.72206
975.963	2.61342
976.253	2.53928
976.544	2.46455
976.834	2.38343
977.124	2.29156
977.414	2.21739
977.705	2.17151
977.994	2.14085
978.284	2.13895
978.574	2.12506
978.865	2.12829
979.154	2.12941
979.444	2.13118
979.734	2.10431
980.023	2.05849
980.315	1.94218
980.604	1.83808
980.894	1.66429
981.183	1.57588
981.473	1.49573
981.763	1.44467
982.053	1.42996
982.343	1.43034
982.633	1.43626
982.922	1.45333
983.212	1.46992
983.501	1.44649
983.791	1.41671
984.08	1.39006
984.37	1.35689
984.661	1.30203
984.95	1.20693
985.239	1.13379
985.529	1.08153
985.818	1.07189
986.108	1.06297
986.397	1.04911
986.687	1.02087
986.976	0.992733
987.265	1.00209
987.555	1.00406
987.844	0.975347
988.133	0.964957
988.423	0.957609
988.712	0.968634
989.001	0.964539
989.291	0.920079
989.58	0.905718
989.869	0.907327
990.158	0.893427
990.448	0.849115
990.737	0.786565
991.026	0.735057
991.315	0.689521
991.605	0.654762
991.894	0.622492
992.183	0.612601
992.472	0.551537
992.76	0.485268
993.049	0.422204
993.338	0.363219
993.627	0.324775
993.916	0.31567
994.206	0.360286
994.495	0.445869
994.784	0.562791
995.071	0.687786
995.361	0.882653
995.65	1.06636
995.939	1.2194
996.228	1.37346
996.517	1.73349
996.804	2.07083
997.093	2.39991
997.382	2.78343
997.671	3.18162
997.96	3.54537
998.248	3.8157
998.537	3.96272
998.826	4.04073
999.115	4.08183
999.402	3.99521
999.691	3.9226
999.98	3.8338
1000.27	3.79462
1000.56	3.67367
1000.85	3.48083
1001.13	3.24355
1001.42	3.00366
1001.71	2.76569
1002	2.53591
1002.29	2.31609
1002.58	2.09114
1002.86	1.88883
1003.15	1.70149
1003.44	1.49875
1003.73	1.31747
1004.02	1.17462
1004.31	1.0463
1004.59	0.966372
1004.88	0.916239
1005.17	0.898166
1005.46	0.891347
1005.75	0.878616
1006.03	0.857558
1006.32	0.890578
1006.61	0.945655
1006.9	1.06577
1007.19	1.16211
1007.47	1.17266
1007.76	1.1488
1008.05	1.12949
1008.34	1.0868
1008.63	1.00345
1008.91	0.917773
1009.2	0.832891
1009.49	0.762156
1009.78	0.709509
1010.07	0.702557
1010.35	0.648596
1010.64	0.610895
1010.93	0.569424
1011.22	0.529065
1011.5	0.579521
1011.79	0.673265
1012.08	0.791605
1012.37	0.927704
1012.66	1.06308
1012.94	1.10845
1013.23	1.18459
1013.52	1.2739
1013.81	1.38517
1014.09	1.47546
1014.38	1.63342
1014.67	1.76745
1014.96	1.91298
1015.24	2.07449
1015.53	2.28497
1015.82	2.49598
1016.11	2.7609
1016.39	3.08414
1016.68	3.46616
1016.97	3.9165
1017.25	4.42101
1017.54	4.9608
1017.83	5.49689
1018.12	6.25702
1018.4	7.09484
1018.69	8.00548
1018.98	8.94581
1019.27	9.92575
1019.55	10.9199
1019.84	11.9075
1020.13	12.9062
1020.41	14.1708
1020.7	15.1431
1020.99	16.0327
1021.28	16.8259
1021.56	17.5506
1021.85	18.0466
1022.14	18.4598
1022.42	18.7236
1022.71	18.8327
1023	18.779
1023.28	18.7071
1023.57	18.5582
1023.86	18.3391
1024.15	18.055
1024.43	17.7196
1024.72	17.3746
1025.01	17.0227
1025.29	16.629
1025.58	16.181
1025.87	15.718
1026.15	15.2613
1026.44	14.7632
1026.73	14.2943
1027.01	13.7823
1027.3	13.249
1027.59	12.6807
1027.87	12.0888
1028.16	11.4951
1028.45	10.9149
1028.73	10.3102
1029.02	9.71284
1029.31	9.13869
1029.59	8.58712
1029.88	8.04281
1030.16	7.56644
1030.45	7.12078
1030.74	6.69719
1031.02	6.29744
1031.31	5.92664
1031.6	5.57174
1031.88	5.26192
1032.17	4.99875
1032.45	4.73642
1032.74	4.49935
1033.03	4.28216
1033.31	4.0543
1033.6	3.86562
1033.89	3.68857
1034.17	3.55737
1034.46	3.44321
1034.74	3.3325
1035.03	3.20224
1035.32	3.08547
1035.6	2.95287
1035.89	2.85138
1036.18	2.76892
1036.46	2.69291
1036.75	2.60878
1037.03	2.47755
1037.32	2.41231
1037.6	2.32719
1037.89	2.23855
1038.18	2.14954
1038.46	2.08362
1038.75	2.00756
1039.03	1.91236
1039.32	1.8732
1039.61	1.90119
1039.89	1.92742
1040.18	1.86797
1040.46	1.76731
1040.75	1.70032
1041.03	1.64758
1041.32	1.5932
1041.61	1.5734
1041.89	1.57235
1042.18	1.56436
1042.46	1.53491
1042.75	1.60844
1043.03	1.65317
1043.32	1.68681
1043.6	1.76697
1043.89	1.80392
1044.17	1.8569
1044.46	1.9052
1044.75	1.96402
1045.03	1.98427
1045.32	1.99891
1045.6	1.96856
1045.89	1.88355
1046.17	1.80635
1046.46	1.7255
1046.74	1.63758
1047.03	1.55349
1047.31	1.50699
1047.6	1.51514
1047.88	1.58257
1048.17	1.67561
1048.45	1.77218
1048.74	1.89393
1049.03	2.00934
1049.31	2.12037
1049.6	2.27997
1049.88	2.40549
1050.17	2.52471
1050.45	2.62409
1050.74	2.73047
1051.02	2.86636
1051.31	3.02139
1051.59	3.18047
1051.87	3.34644
1052.16	3.49332
1052.44	3.5781
1052.73	3.67653
1053.01	3.84257
1053.3	4.06907
1053.58	4.32748
1053.87	4.58917
1054.15	4.90644
1054.44	5.29993
1054.72	5.72065
1055.01	6.22022
1055.29	6.77283
1055.58	7.36845
1055.86	7.99218
1056.15	8.72731
1056.43	9.50419
1056.72	10.3664
1057	11.3465
1057.28	12.437
1057.57	13.6365
1057.85	14.9698
1058.14	16.3809
1058.42	17.8709
1058.71	19.436
1058.99	21.0562
1059.28	22.6988
1059.56	24.2398
1059.85	25.7576
1060.13	27.1803
1060.41	28.5123
1060.7	29.6642
1060.98	30.6315
1061.27	31.5492
1061.55	32.2269
1061.83	32.7679
1062.12	33.1268
1062.4	33.2262
1062.69	33.3056
1062.97	33.0447
1063.26	32.3987
1063.54	31.5251
1063.82	30.4341
1064.11	29.1483
1064.39	27.6649
1064.68	26.0608
1064.96	24.3806
1065.24	22.7999
1065.53	21.2381
1065.81	20.0659
1066.1	18.995
1066.38	17.879
1066.66	16.9589
1066.95	16.1383
1067.23	15.3646
1067.52	14.6718
1067.8	14.0912
1068.08	13.6004
1068.37	13.1785
1068.65	12.831
1068.93	12.5345
1069.22	12.3169
1069.5	12.1173
1069.79	11.9389
1070.07	11.8164
1070.35	11.7174
1070.64	11.6385
1070.92	11.554
1071.2	11.4496
1071.49	11.3486
1071.77	11.2629
1072.05	11.2217
1072.34	11.2224
1072.62	11.2502
1072.9	11.2918
1073.19	11.3387
1073.47	11.3296
1073.75	11.3859
1074.04	11.4648
1074.32	11.5769
1074.6	11.6918
1074.89	11.8227
1075.17	11.9661
1075.45	12.1603
1075.74	12.3617
1076.02	12.5896
1076.3	12.8116
1076.59	13.0304
1076.87	13.2773
1077.15	13.5462
1077.44	13.854
1077.72	14.1917
1078	14.5262
1078.29	14.8866
1078.57	15.2278
1078.85	15.5497
1079.13	15.8633
1079.42	16.1377
1079.7	16.3835
1079.98	16.604
1080.27	16.7981
1080.55	16.9634
1080.83	17.1138
1081.12	17.2365
1081.4	17.3513
1081.68	17.3885
1081.96	17.3196
1082.25	17.2515
1082.53	17.1457
1082.81	16.9863
1083.1	16.7812
1083.38	16.5275
1083.66	16.2269
1083.94	15.8497
1084.23	15.4403
1084.51	15.0143
1084.79	14.5642
1085.07	14.119
1085.36	13.694
1085.64	13.2802
1085.92	12.8618
1086.2	12.4257
1086.49	11.9646
1086.77	11.5254
1087.05	11.0762
1087.33	10.6215
1087.62	10.1799
1087.9	9.75189
1088.18	9.30974
1088.46	8.90078
1088.74	8.52274
1089.03	8.16889
1089.31	7.85532
1089.59	7.57009
1089.87	7.28267
1090.16	7.08252
1090.44	6.92319
1090.72	6.76543
1091	6.57221
1091.29	6.3461
1091.57	6.12505
1091.85	5.93718
1092.13	5.7566
1092.41	5.58014
1092.7	5.4049
1092.98	5.13473
1093.26	4.96202
1093.54	4.85281
1093.82	4.75084
1094.11	4.6657
1094.39	4.67651
1094.67	4.64212
1094.95	4.62563
1095.23	4.61047
1095.52	4.58064
1095.8	4.54639
1096.08	4.44254
1096.36	4.30225
1096.64	4.15016
1096.93	4.05403
1097.21	3.95587
1097.49	3.8482
1097.77	3.74882
1098.05	3.66625
1098.33	3.62762
1098.61	3.61091
1098.9	3.59278
1099.18	3.58539
1099.46	3.58164
1099.74	3.60225
1100.02	3.58942
1100.3	3.56714
1100.59	3.5581
1100.87	3.55517
1101.15	3.55616
1101.43	3.5766
1101.71	3.6335
1101.99	3.71794
1102.27	3.82205
1102.56	3.95092
1102.84	4.07862
1103.12	4.20493
1103.4	4.3302
1103.68	4.43453
1103.96	4.55777
1104.24	4.6707
1104.53	4.72329
1104.81	4.82416
1105.09	4.93718
1105.37	5.08049
1105.65	5.20455
1105.93	5.33608
1106.21	5.51174
1106.49	5.66874
1106.77	5.83641
1107.06	5.99231
1107.34	6.15763
1107.62	6.3364
1107.9	6.46708
1108.18	6.57517
1108.46	6.72182
1108.74	6.82412
1109.02	6.88431
1109.3	6.89222
1109.58	6.90003
1109.86	6.89829
1110.15	6.88505
1110.43	6.86094
1110.71	6.80764
1110.99	6.73626
1111.27	6.66496
1111.55	6.60775
1111.83	6.5562
1112.11	6.4946
1112.39	6.41531
1112.67	6.36572
1112.95	6.30879
1113.23	6.23956
1113.51	6.16348
1113.79	6.11435
1114.07	6.06882
1114.35	6.01812
1114.64	5.9773
1114.92	5.93268
1115.2	5.87833
1115.48	5.85729
1115.76	5.82777
1116.04	5.79741
1116.32	5.7982
1116.6	5.84564
1116.88	5.90356
1117.16	5.95924
1117.44	6.01753
1117.72	6.12415
1118	6.27268
1118.28	6.46367
1118.56	6.6769
1118.84	6.89835
1119.12	7.13923
1119.4	7.38154
1119.68	7.63057
1119.96	7.92463
1120.24	8.2319
1120.52	8.56319
1120.8	8.92453
1121.08	9.3393
1121.36	9.80683
1121.64	10.3308
1121.92	10.8993
1122.2	11.5232
1122.48	12.1982
1122.76	12.9852
1123.04	13.856
1123.32	14.7815
1123.6	15.7432
1123.88	16.8412
1124.16	17.9791
1124.44	19.2267
1124.72	20.4753
1125	21.8945
1125.28	23.4424
1125.56	25.2041
1125.84	27.0142
1126.12	28.7815
1126.4	30.7025
1126.68	32.6506
1126.96	34.5114
1127.24	36.1386
1127.52	37.4344
1127.8	38.4442
1128.08	39.2514
1128.36	39.4372
1128.64	39.1108
1128.92	38.4729
1129.2	37.6304
1129.48	36.3617
1129.75	35.0041
1130.03	33.2845
1130.31	31.5605
1130.59	29.6719
1130.87	27.8001
1131.15	25.9442
1131.43	24.1212
1131.71	22.3795
1131.99	20.784
1132.27	19.3815
1132.55	18.0654
1132.83	16.7389
1133.11	15.8
1133.39	14.7722
1133.67	13.8174
1133.94	12.9296
1134.22	12.1717
1134.5	11.5258
1134.78	10.8845
1135.06	10.3186
1135.34	9.77445
1135.62	9.30283
1135.9	8.88625
1136.18	8.62119
1136.46	8.42294
1136.74	8.15458
1137.01	7.8842
1137.29	7.61823
1137.57	7.37815
1137.85	7.18413
1138.13	6.93764
1138.41	6.69998
1138.69	6.44153
1138.97	6.14681
1139.24	5.92561
1139.52	5.70373
1139.8	5.48165
1140.08	5.26611
1140.36	5.04316
1140.64	4.84181
1140.92	4.63771
1141.2	4.46586
1141.47	4.2909
1141.75	4.1779
1142.03	4.00702
1142.31	3.82079
1142.59	3.64565
1142.87	3.47168
1143.15	3.31485
1143.42	3.17287
1143.7	3.05145
1143.98	2.92566
1144.26	2.821
1144.54	2.72641
1144.82	2.65348
1145.09	2.60035
1145.37	2.57714
1145.65	2.58754
1145.93	2.63438
1146.21	2.725
1146.49	2.84909
1146.76	2.99391
1147.04	3.13601
1147.32	3.25652
1147.6	3.37518
1147.88	3.48202
1148.16	3.59087
1148.43	3.71991
1148.71	3.86748
1148.99	4.06908
1149.27	4.28909
1149.55	4.53855
1149.82	4.81128
1150.1	5.10005
1150.38	5.39539
1150.66	5.70075
1150.94	5.97396
1151.21	6.24506
1151.49	6.52644
1151.77	6.78119
1152.05	6.9942
1152.32	7.16144
1152.6	7.28937
1152.88	7.36436
1153.16	7.45281
1153.44	7.50951
1153.71	7.61784
1153.99	7.70367
1154.27	7.56806
1154.55	7.36512
1154.83	7.30075
1155.1	7.31358
1155.38	7.30264
1155.66	7.25447
1155.94	7.09411
1156.21	6.94916
1156.49	6.83722
1156.77	6.69916
1157.05	6.42583
1157.32	6.54275
1157.6	6.35867
1157.88	6.38837
1158.16	6.58184
1158.43	6.61321
1158.71	6.65546
1158.99	6.61823
1159.27	6.60657
1159.54	6.61874
1159.82	6.64378
1160.1	6.66173
1160.37	6.71629
1160.65	6.7366
1160.93	6.76046
1161.21	6.74047
1161.48	6.70288
1161.76	6.89754
1162.04	7.07189
1162.32	7.18681
1162.59	7.32362
1162.87	7.43453
1163.15	7.59647
1163.42	7.72556
1163.7	7.90441
1163.98	8.10752
1164.25	8.29746
1164.53	8.46289
1164.81	8.65843
1165.09	8.86157
1165.36	9.11381
1165.64	9.40878
1165.92	9.72805
1166.19	10.0635
1166.47	10.3807
1166.75	10.7037
1167.02	11.0735
1167.3	11.4765
1167.58	11.9054
1167.85	12.3333
1168.13	12.7005
1168.41	13.0053
1168.68	13.2543
1168.96	13.3787
1169.24	13.4003
1169.51	13.3556
1169.79	13.2258
1170.07	13.0106
1170.34	12.7293
1170.62	12.3924
1170.9	12.0235
1171.17	11.612
1171.45	11.1675
1171.73	10.6834
1172	10.1567
1172.28	9.6044
1172.56	9.06739
1172.83	8.58147
1173.11	8.17487
1173.39	7.8238
1173.66	7.5273
1173.94	7.26401
1174.21	6.9699
1174.49	6.70134
1174.77	6.46545
1174.98	6.28745
1175.26	6.09154
1175.54	5.93358
1175.82	5.81022
1176.1	5.69185
1176.38	5.59483
1176.66	5.48937
1176.94	5.37343
1177.22	5.22471
1177.5	5.09124
1177.78	5.01448
1178.06	4.9488
1178.34	4.95888
1178.62	5.01086
1178.9	5.08249
1179.19	5.19506
1179.46	5.30992
1179.75	5.42558
1180.03	5.55148
1180.31	5.71592
1180.59	5.88797
1180.87	6.03394
1181.15	6.16029
1181.43	6.23287
1181.71	6.36071
1181.99	6.50704
1182.27	6.65156
1182.55	6.83866
1182.83	7.05917
1183.11	7.29698
1183.39	7.5429
1183.67	7.77265
1183.95	7.97901
1184.23	8.16539
1184.51	8.30099
1184.79	8.36604
1185.07	8.39271
1185.35	8.37602
1185.63	8.33661
1185.91	8.24002
1186.19	8.08522
1186.47	7.86757
1186.75	7.61126
1187.03	7.27829
1187.31	6.94109
1187.59	6.61123
1187.87	6.28675
1188.15	5.98081
1188.43	5.67895
1188.71	5.35544
1188.99	5.00158
1189.27	4.65161
1189.55	4.29569
1189.83	3.94954
1190.1	3.60541
1190.38	3.27762
1190.66	2.98862
1190.94	2.72446
1191.22	2.46776
1191.5	2.24023
1191.78	2.00482
1192.06	1.70698
1192.34	1.48326
1192.62	1.34892
1192.9	1.22432
1193.18	1.14846
1193.46	1.07072
1193.74	0.97911
1194.02	0.96731
1194.3	0.874763
1194.58	0.808229
1194.86	0.714936
1195.14	0.616047
1195.41	0.504557
1195.69	0.411194
1195.97	0.286271
1196.25	0.295379
1196.53	0.334119
1196.81	0.417643
1197.09	0.52144
1197.37	0.662055
1197.65	0.823471
1197.93	1.00388
1198.21	1.17483
1198.48	1.39118
1198.76	1.6081
1199.04	1.78109
1199.32	1.92756
1199.6	2.09444
1199.88	2.23898
1200.16	2.36232
1200.44	2.48984
1200.72	2.60094
1201	2.66331
1201.27	2.69948
1201.55	2.72106
1201.83	2.72783
1202.11	2.73606
1202.39	2.68849
1202.67	2.58038
1202.95	2.45396
1203.23	2.31644
1203.5	2.19041
1203.78	2.06408
1204.06	1.9317
1204.34	1.79173
1204.62	1.70358
1204.9	1.62583
1205.18	1.57252
1205.46	1.51733
1205.73	1.5318
1206.01	1.5737
1206.29	1.60606
1206.57	1.60073
1206.85	1.58848
1207.13	1.57122
1207.41	1.56063
1207.68	1.52985
1207.96	1.47021
1208.24	1.38399
1208.52	1.32271
1208.8	1.27908
1209.08	1.28766
1209.35	1.28464
1209.63	1.28714
1209.91	1.30342
1210.19	1.31259
1210.47	1.32253
1210.74	1.33671
1211.02	1.39295
1211.3	1.50183
1211.58	1.61765
1211.86	1.72947
1212.14	1.84608
1212.41	1.95447
1212.69	2.06879
1212.97	2.17893
1213.25	2.29328
1213.53	2.4059
1213.8	2.51055
1214.08	2.6283
1214.36	2.74107
1214.64	2.87052
1214.92	3.02909
1215.19	3.21429
1215.47	3.44341
1215.75	3.69206
1216.03	3.9419
1216.31	4.20661
1216.58	4.5071
1216.86	4.83642
1217.14	5.18838
1217.42	5.5279
1217.69	5.82995
1217.97	6.14304
1218.25	6.45948
1218.53	6.86384
1218.81	7.30041
1219.08	7.77034
1219.36	8.26212
1219.64	8.80764
1219.91	9.36967
1220.19	9.92694
1220.47	10.5141
1220.75	11.0835
1221.03	11.7581
1221.3	12.4088
1221.58	13.0006
1221.86	13.5888
1222.14	14.1448
1222.41	14.6476
1222.69	15.1242
1222.97	15.5015
1223.24	15.793
1223.52	15.9544
1223.8	16.0718
1224.08	16.1185
1224.35	16.0521
1224.63	15.8912
1224.91	15.6395
1225.19	15.3084
1225.46	14.8991
1225.74	14.4321
1226.02	13.9119
1226.3	13.3603
1226.57	12.7784
1226.85	12.191
1227.13	11.6065
1227.4	11.0404
1227.68	10.5023
1227.96	10.0212
1228.23	9.57273
1228.51	9.17648
1228.79	8.844
1229.06	8.57424
1229.34	8.37059
1229.62	8.20583
1229.9	8.08364
1230.17	7.98845
1230.45	7.92717
1230.73	7.84924
1231	7.77593
1231.28	7.74256
1231.56	7.71634
1231.83	7.70954
1232.11	7.70651
1232.39	7.71086
1232.66	7.70845
1232.94	7.69413
1233.22	7.66054
1233.49	7.63717
1233.77	7.62787
1234.05	7.65709
1234.32	7.67471
1234.6	7.77645
1234.88	7.92476
1235.15	8.09323
1235.43	8.32829
1235.71	8.53606
1235.98	8.71255
1236.26	8.90124
1236.54	9.08664
1236.81	9.29825
1237.09	9.505
1237.37	9.70212
1237.64	9.86627
1237.92	10.0375
1238.19	10.2465
1238.47	10.4797
1238.75	10.7247
1239.02	10.968
1239.3	11.1988
1239.58	11.457
1239.85	11.7051
1240.13	11.9451
1240.4	12.189
1240.68	12.4566
1240.96	12.7325
1241.23	13.0719
1241.51	13.4323
1241.78	13.773
1242.06	14.1305
1242.34	14.4393
1242.61	14.7498
1242.89	15.0295
1243.17	15.302
1243.44	15.6195
1243.72	15.9784
1243.99	16.3187
1244.27	16.6694
1244.54	17.0549
1244.82	17.4109
1245.1	17.7566
1245.37	18.0999
1245.65	18.4578
1245.92	18.7868
1246.2	19.1159
1246.48	19.4541
1246.75	19.7969
1247.03	20.1132
1247.3	20.4598
1247.58	20.8072
1247.85	21.1395
1248.13	21.4666
1248.41	21.7999
1248.68	22.0697
1248.96	22.3848
1249.23	22.6717
1249.51	22.9002
1249.78	23.098
1250.06	23.2732
1250.33	23.4016
1250.61	23.5364
1250.89	23.6675
1251.16	23.7923
1251.44	23.9096
1251.71	24.0239
1251.99	24.1309
1252.26	24.2603
1252.54	24.3858
1252.81	24.5091
1253.09	24.6779
1253.36	24.8255
1253.64	24.9813
1253.91	25.1331
1254.19	25.2267
1254.46	25.319
1254.74	25.3258
1255.01	25.2919
1255.29	25.3579
1255.56	25.2309
1255.84	25.2513
1256.11	25.2756
1256.39	25.3528
1256.67	25.3965
1256.94	25.4491
1257.22	25.5317
1257.49	25.6195
1257.77	25.6908
1258.04	25.779
1258.32	25.8164
1258.59	25.8764
1258.87	25.9473
1259.14	25.9896
1259.42	26.0269
1259.69	26.0133
1259.96	25.9874
1260.24	25.96
1260.51	25.9561
1260.79	25.8837
1261.06	25.827
1261.34	25.7627
1261.61	25.7059
1261.89	25.6293
1262.16	25.6072
1262.44	25.5882
1262.71	25.5883
1262.99	25.5848
1263.26	25.5743
1263.54	25.5348
1263.81	25.5034
1264.08	25.4891
1264.36	25.3882
1264.63	25.3296
1264.91	25.2819
1265.18	25.2374
1265.46	25.1694
1265.73	25.091
1266.01	24.9997
1266.28	24.9348
1266.55	24.8456
1266.83	24.7399
1267.1	24.6193
1267.38	24.4977
1267.65	24.38
1267.93	24.2965
1268.2	24.2554
1268.47	24.2248
1268.75	24.2147
1269.02	24.1381
1269.3	24.0121
1269.57	23.8784
1269.85	23.753
1270.12	23.6718
1270.39	23.6022
1270.67	23.5642
1270.94	23.5049
1271.22	23.4905
1271.49	23.3925
1271.76	23.2959
1272.04	23.2175
1272.31	23.1689
1272.59	23.1329
1272.86	23.1045
1273.13	23.1184
1273.41	23.1838
1273.68	23.2863
1273.96	23.4208
1274.23	23.6055
1274.5	23.7698
1274.78	23.8799
1275.05	24.0037
1275.33	24.1679
1275.6	24.3373
1275.87	24.4687
1276.15	24.6303
1276.42	24.7494
1276.69	24.8543
1276.97	24.95
1277.24	25.0848
1277.51	25.2809
1277.79	25.5468
1278.06	25.8489
1278.33	26.1611
1278.61	26.4549
1278.88	26.7089
1279.15	26.949
1279.43	27.1666
1279.7	27.3999
1279.98	27.6142
1280.25	27.7785
1280.52	27.9558
1280.8	28.0888
1281.07	28.2144
1281.34	28.3001
1281.62	28.3551
1281.89	28.3558
1282.16	28.3405
1282.44	28.3204
1282.71	28.3089
1282.98	28.2919
1283.26	28.2546
1283.53	28.1855
1283.8	28.044
1284.07	27.8966
1284.35	27.7699
1284.62	27.6574
1284.89	27.5376
1285.17	27.3722
1285.44	27.0781
1285.71	27.0672
1285.99	27.3835
1286.26	27.3909
1286.53	27.3303
1286.81	27.3073
1287.08	27.2697
1287.35	27.3285
1287.62	27.3668
1287.9	27.5375
1288.17	27.6939
1288.44	27.9343
1288.72	28.1961
1288.99	28.7131
1289.26	29.3405
1289.53	30.1563
1289.81	31.0023
1290.08	32.1139
1290.35	33.3761
1290.63	34.7925
1290.9	36.43
1291.17	38.3238
1291.44	40.501
1291.72	43.367
1291.99	46.9553
1292.26	50.9972
1292.53	55.7832
1292.81	61.4356
1293.08	68.2842
1293.35	74.814
1293.62	80.9103
1293.9	86.8636
1294.17	91.45
1294.44	95.4206
1294.71	98.1198
1294.99	99.4518
1295.26	98.272
1295.53	93.9742
1295.8	88.0449
1296.07	81.758
1296.35	75.7904
1296.62	69.5833
1296.89	64.8325
1297.17	60.6091
1297.44	57.2349
1297.71	54.3329
1297.98	51.8523
1298.25	49.5705
1298.52	47.248
1298.8	45.6724
1299.07	44.0876
1299.34	42.5796
1299.61	41.1406
1299.89	39.7429
1300.16	37.6009
1300.43	37.1062
1300.7	36.212
1300.97	35.2211
1301.25	34.2934
1301.52	33.4746
1301.79	32.6606
1302.06	31.9133
1302.33	31.0761
1302.61	30.27
1302.88	29.4991
1303.15	28.7846
1303.42	28.117
1303.69	27.5279
1303.96	26.9547
1304.24	26.4154
1304.51	25.8751
1304.78	25.2879
1305.05	24.733
1305.32	24.2198
1305.59	23.7458
1305.87	23.2818
1306.14	22.8687
1306.41	22.4847
1306.68	22.1038
1306.95	21.7097
1307.23	21.3287
1307.5	20.9724
1307.77	20.6136
1308.04	20.2417
1308.31	19.9127
1308.58	19.5839
1308.85	19.2778
1309.13	18.9822
1309.4	18.6678
1309.67	18.3654
1309.94	18.0503
1310.21	17.7372
1310.48	17.4305
1310.75	17.1474
1311.02	16.8699
1311.3	16.565
1311.57	16.2543
1311.84	15.9293
1312.11	15.6377
1312.38	15.3841
1312.65	15.1088
1312.92	14.8294
1313.19	14.5682
1313.47	14.3315
1313.74	14.1245
1314.01	13.9233
1314.28	13.6922
1314.55	13.4694
1314.82	13.2556
1315.09	13.0511
1315.36	12.8382
1315.63	12.6012
1315.9	12.4028
1316.17	12.1982
1316.45	11.9957
1316.72	11.7597
1316.99	11.5443
1317.26	11.3198
1317.53	11.0896
1317.8	10.8546
1318.07	10.5851
1318.34	10.3522
1318.61	10.1392
1318.88	9.92319
1319.15	9.7439
1319.42	9.55227
1319.69	9.37403
1319.97	9.20253
1320.24	9.02451
1320.51	8.85005
1320.78	8.66547
1321.05	8.47586
1321.32	8.3168
1321.59	8.13195
1321.86	7.97362
1322.13	7.82714
1322.4	7.60673
1322.67	7.56239
1322.94	7.50651
1323.21	7.35897
1323.48	7.68971
1323.75	8.88917
1324.02	13.5373
1324.29	27.1514
1324.56	42.6836
1324.83	51.2067
1325.11	47.6025
1325.38	26.8437
1325.65	8.67136
1325.92	7.12498
1326.19	6.30304
1326.46	6.46784
1326.73	6.32532
1327	5.97917
1327.27	6.09518
1327.54	5.84414
1327.81	5.66903
1328.08	5.61574
1328.35	5.54076
1328.62	5.50558
1328.89	5.41883
1329.16	5.30542
1329.43	5.17677
1329.7	5.06644
1329.97	4.96548
1330.24	4.88211
1330.51	4.79473
1330.78	4.71575
1331.05	4.64344
1331.32	4.58991
1331.59	4.55945
1331.86	4.51092
1332.13	4.45885
1332.4	4.39578
1332.67	4.33057
1332.94	4.28941
1333.21	4.25416
1333.47	4.30599
1333.74	4.35192
1334.02	4.41101
1334.29	4.45861
1334.55	4.48375
1334.82	4.51779
1335.09	4.56576
1335.36	4.61523
1335.63	4.65569
1335.9	4.71142
1336.17	4.76826
1336.44	4.85552
1336.71	4.9297
1336.98	5.02832
1337.25	5.14634
1337.52	5.27556
1337.79	5.44604
1338.06	5.65904
1338.33	5.92682
1338.6	6.24171
1338.87	6.53887
1339.14	6.83162
1339.4	7.14433
1339.67	7.45341
1339.94	7.74048
1340.21	8.01901
1340.48	8.32579
1340.75	8.62838
1341.02	8.89988
1341.29	9.15037
1341.56	9.38256
1341.83	9.59078
1342.1	9.7681
1342.37	9.89105
1342.63	9.93761
1342.9	9.90417
1343.17	9.80516
1343.44	9.66737
1343.71	9.48957
1343.98	9.27108
1344.25	9.01741
1344.52	8.72531
1344.79	8.34903
1345.06	7.99945
1345.32	7.6437
1345.59	7.27653
1345.86	6.93276
1346.13	6.60526
1346.4	6.29588
1346.67	6.02084
1346.94	5.81991
1347.21	5.6063
1347.47	5.40377
1347.74	5.22729
1348.01	5.02541
1348.28	4.80729
1348.55	4.57498
1348.82	4.36572
1349.09	4.16901
1349.36	3.99418
1349.62	3.85585
1349.89	3.7544
1350.16	3.67095
1350.43	3.57454
1350.7	3.47229
1350.97	3.45078
1351.24	3.46557
1351.5	3.50511
1351.77	3.57442
1352.04	3.63887
1352.31	3.70203
1352.58	3.75786
1352.85	3.74348
1353.11	3.72676
1353.38	3.7065
1353.65	3.70543
1353.92	3.75421
1354.19	3.78465
1354.46	3.80229
1354.72	3.80706
1354.99	3.78884
1355.26	3.78148
1355.53	3.76399
1355.8	3.72817
1356.07	3.67383
1356.33	3.63903
1356.6	3.6528
1356.87	3.68909
1357.14	3.73045
1357.41	3.75012
1357.67	3.75499
1357.94	3.75125
1358.21	3.74424
1358.48	3.74243
1358.75	3.74717
1359.01	3.75813
1359.28	3.76246
1359.55	3.73466
1359.82	3.70254
1360.09	3.70319
1360.35	3.7002
1360.62	3.71734
1360.89	3.75943
1361.16	3.8021
1361.43	3.8391
1361.69	3.90518
1361.96	3.99001
1362.23	4.085
1362.5	4.16514
1362.76	4.2223
1363.03	4.27495
1363.3	4.35507
1363.57	4.43544
1363.83	4.51501
1364.1	4.60611
1364.37	4.72311
1364.64	4.9
1364.9	5.1041
1365.17	5.24488
1365.44	5.39891
1365.71	5.53855
1365.97	5.6779
1366.24	5.81171
1366.51	5.93071
1366.78	6.07136
1367.04	6.20709
1367.31	6.34524
1367.58	6.47379
1367.85	6.57881
1368.11	6.65335
1368.38	6.70333
1368.65	6.75712
1368.91	6.77379
1369.18	6.78399
1369.45	6.80677
1369.72	6.83016
1369.98	6.83733
1370.25	6.83469
1370.52	6.85293
1370.78	6.8502
1371.05	6.86515
1371.32	6.86769
1371.59	6.83255
1371.85	6.81433
1372.12	6.80261
1372.39	6.7912
1372.65	6.81882
1372.92	6.83781
1373.19	6.88906
1373.45	6.91271
1373.72	6.93643
1373.99	6.98662
1374.26	7.06219
1374.52	7.16905
1374.79	7.2632
1375.06	7.36206
1375.32	7.49228
1375.59	7.6191
1375.86	7.79469
1376.12	7.95293
1376.39	8.13167
1376.66	8.39317
1376.92	8.69532
1377.19	9.01351
1377.46	9.34627
1377.72	9.66416
1377.99	9.99328
1378.26	10.3405
1378.52	10.7129
1378.79	11.0757
1379.06	11.4629
1379.32	11.8915
1379.59	12.3721
1379.86	12.8726
1380.12	13.406
1380.39	13.9799
1380.66	14.5371
1380.92	15.0467
1381.19	15.6545
1381.45	16.265
1381.72	16.9207
1381.99	17.6003
1382.25	18.2628
1382.52	18.9163
1382.79	19.56
1383.05	20.212
1383.32	20.8758
1383.58	21.5225
1383.85	22.1447
1384.12	22.7312
1384.38	23.2232
1384.65	23.6006
1384.92	23.9257
1385.18	24.2024
1385.45	24.428
1385.71	24.6033
1385.98	24.7097
1386.25	24.7448
1386.51	24.6835
1386.78	24.5114
1387.04	24.2569
1387.31	23.9623
1387.58	23.6155
1387.84	23.1874
1388.11	22.6456
1388.37	22.0576
1388.64	21.4717
1388.9	20.8736
1389.17	20.2923
1389.44	19.7142
1389.7	19.1342
1389.97	18.5118
1390.23	17.8936
1390.5	17.271
1390.76	16.6293
1391.03	15.9188
1391.3	15.3821
1391.56	14.857
1391.83	14.3944
1392.09	14.0042
1392.36	13.7022
1392.62	13.3654
1392.89	13.009
1393.16	12.6909
1393.42	12.403
1393.69	12.1203
1393.95	11.8962
1394.22	11.7359
1394.48	11.5721
1394.75	11.4219
1395.01	11.2566
1395.28	11.095
1395.54	10.9173
1395.81	10.7625
1396.08	10.6224
1396.34	10.4994
1396.61	10.3469
1396.87	10.2386
1397.14	10.1627
1397.4	10.0993
1397.67	10.0418
1397.93	10.0091
1398.2	10.0197
1398.46	10.0625
1398.73	10.1712
1398.99	10.2687
1399.26	10.3342
1399.52	10.3614
1399.79	10.3665
1400.05	10.3998
1400.32	10.3923
1400.58	10.4315
1400.85	10.4804
1401.11	10.5759
1401.38	10.7067
1401.64	10.8554
1401.91	11.0348
1402.17	11.2575
1402.44	11.523
1402.7	11.7881
1402.97	12.0652
1403.23	12.2845
1403.5	12.5087
1403.76	12.7649
1404.03	13.0373
1404.29	13.3387
1404.56	13.6118
1404.82	13.8851
1405.09	14.1887
1405.35	14.4682
1405.62	14.7564
1405.88	15.0773
1406.14	15.4258
1406.41	15.7569
1406.67	15.9958
1406.94	16.2343
1407.2	16.4611
1407.47	16.6676
1407.73	16.8556
1408	17.0524
1408.26	17.241
1408.53	17.4114
1408.79	17.5693
1409.05	17.704
1409.32	17.7805
1409.58	17.89
1409.85	17.9845
1410.11	18.1105
1410.38	18.2585
1410.64	18.4158
1410.91	18.5815
1411.17	18.7773
1411.43	18.9835
1411.7	19.211
1411.96	19.5086
1412.23	19.8331
1412.49	20.1633
1412.75	20.5545
1413.02	20.9782
1413.28	21.5363
1413.55	22.1541
1413.81	22.8614
1414.08	23.6063
1414.34	24.359
1414.6	25.0941
1414.87	25.7777
1415.13	26.3859
1415.4	26.8795
1415.66	27.2182
1415.92	27.4024
1416.19	27.278
1416.45	27.0174
1416.71	26.621
1416.98	26.034
1417.24	25.3041
1417.51	24.5194
1417.77	23.6739
1418.03	22.7989
1418.3	21.885
1418.56	20.98
1418.82	20.1414
1419.09	19.3663
1419.35	18.6628
1419.62	18.0464
1419.88	17.4425
1420.14	16.8853
1420.41	16.382
1420.67	15.9624
1420.93	15.5986
1421.2	15.2966
1421.46	15.0473
1421.72	14.8095
1421.99	14.5855
1422.25	14.3712
1422.52	14.1842
1422.78	14.0276
1423.04	13.9039
1423.31	13.8382
1423.57	13.8289
1423.83	13.8437
1424.1	13.8846
1424.36	13.9915
1424.62	14.1755
1424.89	14.4198
1425.15	14.7212
1425.41	15.0633
1425.68	15.4408
1425.94	15.8489
1426.2	16.2148
1426.47	16.5802
1426.73	16.976
1426.99	17.3584
1427.02	17.4021
1427.29	17.7734
1427.56	18.1554
1427.82	18.5783
1428.09	19.0688
1428.36	19.6081
1428.63	20.1819
1428.89	20.8113
1429.16	21.4866
1429.43	22.219
1429.7	23.0307
1429.96	23.8742
1430.23	24.6803
1430.5	25.5216
1430.77	26.3908
1431.03	27.2727
1431.3	28.1185
1431.57	28.9922
1431.83	29.8435
1432.1	30.7433
1432.37	31.6726
1432.64	32.6241
1432.9	33.6231
1433.17	34.6473
1433.44	35.6668
1433.7	36.6809
1433.97	37.647
1434.24	38.6561
1434.51	39.7198
1434.77	40.8339
1435.04	41.979
1435.31	43.1686
1435.57	44.3919
1435.84	45.6362
1436.11	46.904
1436.37	48.1263
1436.64	49.3418
1436.91	50.5069
1437.17	51.5643
1437.44	52.521
1437.71	53.3534
1437.97	54.0205
1438.24	54.4576
1438.51	54.7646
1438.77	54.909
1439.04	54.8787
1439.31	54.7191
1439.57	54.4823
1439.84	54.1318
1440.11	53.7055
1440.37	53.085
1440.64	52.2895
1440.91	51.3741
1441.17	50.4792
1441.44	49.5541
1441.71	48.6423
1441.97	47.904
1442.24	46.9379
1442.51	46.0399
1442.77	45.2074
1443.04	44.4448
1443.3	43.7452
1443.57	43.1193
1443.84	42.5808
1444.1	42.0767
1444.37	41.7543
1444.64	41.5022
1444.9	41.2902
1445.17	41.0775
1445.44	40.761
1445.7	40.4009
1445.97	40.0727
1446.23	39.7901
1446.5	39.5547
1446.77	39.3707
1447.03	39.2003
1447.3	39.0435
1447.56	38.9059
1447.83	38.7794
1448.1	38.5475
1448.36	38.4982
1448.63	38.4175
1448.9	38.324
1449.16	38.2401
1449.43	38.129
1449.69	38.0541
1449.96	37.9622
1450.23	37.8865
1450.49	37.7299
1450.76	37.6334
1451.02	37.6103
1451.29	37.5718
1451.55	37.5031
1451.82	37.4127
1452.09	37.3258
1452.35	37.1911
1452.62	37.0415
1452.88	36.9574
1453.15	36.8562
1453.41	36.735
1453.68	36.635
1453.95	36.5752
1454.21	36.5267
1454.48	36.4759
1454.74	36.4312
1455.01	36.373
1455.27	36.3376
1455.54	36.3315
1455.81	36.3109
1456.07	36.3257
1456.34	36.242
1456.6	36.132
1456.87	35.9578
1457.13	35.7931
1457.4	35.629
1457.66	35.4538
1457.93	35.3382
1458.19	35.2672
1458.46	35.145
1458.72	35.037
1458.99	34.9498
1459.26	34.8937
1459.52	34.7907
1459.79	34.6077
1460.05	34.4715
1460.32	34.2438
1460.58	33.979
1460.85	33.7546
1461.11	33.5313
1461.38	33.3311
1461.64	33.164
1461.91	32.9643
1462.17	32.7648
1462.44	32.4887
1462.7	32.1638
1462.97	31.8674
1463.23	31.6527
1463.5	31.3951
1463.76	31.0663
1464.03	30.743
1464.29	30.3798
1464.56	30.1442
1464.82	29.8148
1465.09	29.4428
1465.35	29.0349
1465.62	28.5816
1465.88	28.1352
1466.15	27.7097
1466.41	27.3682
1466.68	27.0765
1466.94	26.7592
1467.21	26.413
1467.47	26.0283
1467.74	25.6255
1468	25.1812
1468.26	24.7275
1468.53	24.255
1468.79	23.756
1469.06	23.2139
1469.32	22.6451
1469.59	22.0987
1469.85	21.553
1470.12	20.9627
1470.38	20.4598
1470.65	19.9984
1470.91	19.5544
1471.17	19.1787
1471.44	18.7566
1471.7	18.354
1471.97	17.9903
1472.23	17.6313
1472.5	17.2705
1472.76	16.9359
1473.03	16.6107
1473.29	16.2859
1473.55	15.9641
1473.82	15.6418
1474.08	15.355
1474.35	15.0728
1474.61	14.7528
1474.88	14.4247
1475.14	14.1121
1475.4	13.8085
1475.67	13.5923
1475.93	13.3949
1476.2	13.266
1476.46	13.1098
1476.72	12.9732
1476.99	12.8733
1477.25	12.8217
1477.52	12.8023
1477.78	12.788
1478.04	12.8022
1478.31	12.8596
1478.57	12.9643
1478.84	13.0946
1479.1	13.3043
1479.36	13.5608
1479.63	13.8401
1479.89	14.2045
1480.16	14.5974
1480.42	15.0264
1480.68	15.513
1480.95	16.0375
1481.21	16.5714
1481.48	17.063
1481.74	17.5171
1482	17.9041
1482.27	18.1857
1482.53	18.3545
1482.79	18.3979
1483.06	18.3252
1483.32	18.074
1483.59	17.7594
1483.85	17.3712
1484.11	16.8328
1484.38	16.1812
1484.64	15.4489
1484.9	14.679
1485.17	13.8545
1485.43	12.971
1485.69	12.0139
1485.96	11.0621
1486.22	10.2235
1486.48	9.54491
1486.75	9.03526
1487.01	8.47635
1487.27	7.88832
1487.54	7.32033
1487.8	6.82808
1488.06	6.31765
1488.33	5.76871
1488.59	5.38226
1488.85	5.03493
1489.12	4.71109
1489.38	4.42951
1489.64	4.16346
1489.91	3.9383
1490.17	3.7274
1490.43	3.54235
1490.7	3.39535
1490.96	3.27582
1491.22	3.14828
1491.49	3.04145
1491.75	2.9033
1492.01	2.76269
1492.28	2.61683
1492.54	2.4569
1492.8	2.34415
1493.06	2.24873
1493.33	2.15917
1493.59	2.08791
1493.85	2.02177
1494.12	1.93674
1494.38	1.86422
1494.64	1.79901
1494.9	1.73467
1495.17	1.70245
1495.43	1.65849
1495.69	1.6293
1495.96	1.58756
1496.22	1.52871
1496.48	1.459
1496.74	1.43356
1497.01	1.4084
1497.27	1.33514
1497.53	1.26103
1497.79	1.18489
1498.06	1.13625
1498.32	1.10783
1498.58	1.08181
1498.85	1.05499
1499.11	1.05316
1499.37	1.07934
1499.63	1.04544
1499.9	0.982907
1500.16	0.895481
1500.42	0.812288
1500.68	0.761788
1500.95	0.72643
1501.21	0.695982
1501.47	0.656192
1501.73	0.62036
1501.99	0.57285
1502.26	0.541111
1502.52	0.503174
1502.78	0.479985
1503.04	0.469962
1503.31	0.455084
1503.57	0.452215
1503.83	0.470029
1504.09	0.468242
1504.36	0.443082
1504.62	0.393606
1504.88	0.377266
1505.14	0.392533
1505.4	0.376358
1505.67	0.353896
1505.93	0.342326
1506.19	0.331044
1506.45	0.300323
1506.71	0.252394
1506.98	0.213358
1507.24	0.148254
1507.5	0.0953876
1507.76	0.0650284
1508.02	-0.0110785
1508.29	-0.045595
1508.55	-0.0573261
1508.81	-0.0424072
1509.07	-0.0195457
1509.33	0.0509468
1509.6	0.109686
1509.86	0.151348
1510.12	0.168871
1510.38	0.177981
1510.64	0.177902
1510.9	0.170887
1511.17	0.157643
1511.43	0.144149
1511.69	0.130807
1511.95	0.124791
1512.21	0.126087
1512.47	0.131153
1512.74	0.136279
1513	0.164258
1513.26	0.184099
1513.52	0.218357
1513.78	0.242067
1514.04	0.258519
1514.31	0.238711
1514.57	0.213522
1514.83	0.191273
1515.09	0.153712
1515.35	0.113759
1515.61	0.0822374
1515.87	0.0800269
1516.14	0.0753587
1516.4	0.0773022
1516.66	0.0928506
1516.92	0.130526
1517.18	0.148178
1517.44	0.188242
1517.7	0.212008
1517.96	0.216861
1518.23	0.217526
1518.49	0.203862
1518.75	0.189728
1519.01	0.172279
1519.27	0.147687
1519.53	0.133375
1519.79	0.110115
1520.05	0.0950275
1520.32	0.100576
1520.58	0.102018
1520.84	0.102439
1521.1	0.111362
1521.36	0.10299
1521.62	0.126093
1521.88	0.167896
1522.14	0.20293
1522.4	0.248647
1522.66	0.261519
1522.93	0.262489
1523.19	0.283482
1523.45	0.323122
1523.71	0.326601
1523.97	0.312695
1524.23	0.286559
1524.49	0.271222
1524.75	0.26872
1525.01	0.273177
1525.27	0.25686
1525.53	0.244143
1525.8	0.232753
1526.06	0.233268
1526.32	0.233729
1526.58	0.241236
1526.84	0.213767
1527.1	0.193202
1527.36	0.183996
1527.62	0.17942
1527.88	0.170227
1528.14	0.204634
1528.4	0.247735
1528.66	0.285701
1528.92	0.27248
1529.18	0.243444
1529.44	0.252069
1529.7	0.299661
1529.96	0.330355
1530.22	0.337408
1530.48	0.329364
1530.74	0.301163
1531.01	0.253435
1531.27	0.145759
1531.53	0.0806372
1531.79	0.0408378
1532.05	0.00508954
1532.31	-0.0338057
1532.57	-0.075377
1532.83	-0.102467
1533.09	-0.140636
1533.35	-0.196594
1533.61	-0.205047
1533.87	-0.198658
1534.13	-0.186031
1534.39	-0.190867
1534.65	-0.206867
1534.91	-0.209994
1535.17	-0.211098
1535.43	-0.222165
1535.69	-0.229525
1535.95	-0.233357
1536.21	-0.225006
1536.47	-0.194648
1536.73	-0.156166
1536.99	-0.136547
1537.25	-0.137406
1537.51	-0.172538
1537.77	-0.184497
1538.03	-0.173275
1538.29	-0.172485
1538.55	-0.172835
1538.81	-0.191739
1539.07	-0.253611
1539.33	-0.228432
1539.59	-0.180359
1539.85	-0.120799
1540.11	-0.0600062
1540.37	-0.0275443
1540.63	-0.00357345
1540.89	0.0281057
1541.15	0.0469224
1541.41	0.11356
1541.67	0.160611
1541.92	0.1508
1542.18	0.126548
1542.44	0.116749
1542.7	0.125984
1542.96	0.13059
1543.22	0.119705
1543.48	0.117229
1543.74	0.141066
1544	0.170939
1544.26	0.207175
1544.52	0.243228
1544.78	0.240838
1545.04	0.254914
1545.3	0.282266
1545.56	0.302068
1545.82	0.334852
1546.08	0.350612
1546.33	0.344796
1546.59	0.358302
1546.85	0.362774
1547.11	0.361423
1547.37	0.354816
1547.63	0.349554
1547.89	0.347967
1548.15	0.337705
1548.41	0.337673
1548.67	0.346297
1548.93	0.352535
1549.19	0.356876
1549.44	0.394695
1549.7	0.433703
1549.96	0.444577
1550.22	0.430357
1550.48	0.429588
1550.74	0.445097
1551	0.469079
1551.26	0.520276
1551.52	0.586156
1551.78	0.667503
1552.03	0.669711
1552.29	0.687227
1552.55	0.719514
1552.81	0.771841
1553.07	0.818611
1553.33	0.874887
1553.59	0.942613
1553.85	1.01898
1554.11	1.11368
1554.36	1.22744
1554.62	1.34922
1554.88	1.41454
1555.14	1.4682
1555.4	1.49761
1555.66	1.50968
1555.92	1.48197
1556.18	1.46531
1556.43	1.42505
1556.69	1.37425
1556.95	1.32392
1557.21	1.28444
1557.47	1.26581
1557.73	1.25067
1557.99	1.24984
1558.24	1.27237
1558.5	1.28863
1558.76	1.31308
1559.02	1.34618
1559.28	1.37164
1559.54	1.40343
1559.79	1.41848
1560.05	1.42791
1560.31	1.44234
1560.57	1.47425
1560.83	1.48477
1561.09	1.48629
1561.34	1.42553
1561.6	1.35955
1561.86	1.3194
1562.12	1.30735
1562.38	1.29287
1562.64	1.2756
1562.89	1.25435
1563.15	1.20408
1563.41	1.15207
1563.67	1.09943
1563.93	1.06172
1564.18	1.1013
1564.44	1.14326
1564.7	1.1804
1564.96	1.22983
1565.22	1.2509
1565.47	1.26885
1565.73	1.2921
1565.99	1.30623
1566.25	1.30985
1566.51	1.31754
1566.76	1.33361
1567.02	1.36752
1567.28	1.40721
1567.54	1.43308
1567.79	1.47526
1568.05	1.50262
1568.31	1.50657
1568.57	1.58863
1568.83	1.65575
1569.08	1.72904
1569.34	1.79897
1569.6	1.88021
1569.86	1.92107
1570.11	1.96348
1570.37	2.00943
1570.63	2.06423
1570.89	2.12308
1571.15	2.19413
1571.4	2.28568
1571.66	2.32847
1571.92	2.38476
1572.18	2.45729
1572.43	2.55794
1572.69	2.6841
1572.95	2.83055
1573.2	2.97716
1573.46	3.12793
1573.72	3.28124
1573.98	3.4385
1574.24	3.57023
1574.49	3.68536
1574.75	3.82359
1575.01	3.98592
1575.26	4.18674
1575.52	4.41783
1575.78	4.67103
1576.04	4.94699
1576.29	5.24612
1576.55	5.57453
1576.81	5.94172
1577.06	6.31494
1577.32	6.71549
1577.58	7.06994
1577.84	7.44664
1578.09	7.86504
1578.35	8.26756
1578.61	8.65925
1578.86	9.03841
1579.12	9.35328
1579.38	9.68315
1579.64	10.0045
1579.89	10.2546
1580.15	10.4566
1580.41	10.5755
1580.66	10.6763
1580.92	10.7662
1581.18	10.8043
1581.43	10.7548
1581.69	10.7846
1581.95	10.754
1582.2	10.7313
1582.46	10.7066
1582.72	10.7083
1582.97	10.7271
1583.23	10.7455
1583.49	10.7722
1583.75	10.8355
1584	10.8647
1584.26	10.8503
1584.52	10.839
1584.77	10.8359
1585.03	10.8283
1585.29	10.8228
1585.54	10.8189
1585.8	10.8193
1586.06	10.8041
1586.31	10.7758
1586.57	10.7166
1586.82	10.6517
1587.08	10.5926
1587.34	10.5615
1587.59	10.5167
1587.85	10.482
1588.11	10.4396
1588.36	10.4018
1588.62	10.4089
1588.88	10.4217
1589.13	10.445
1589.39	10.4939
1589.64	10.646
1589.9	10.8133
1590.16	10.9695
1590.41	11.1532
1590.67	11.3823
1590.93	11.6485
1591.18	11.9056
1591.44	12.2183
1591.69	12.5197
1591.95	12.851
1592.21	13.1785
1592.46	13.5222
1592.72	13.8803
1592.97	14.2417
1593.23	14.6047
1593.49	15.0015
1593.74	15.4243
1594	15.8666
1594.25	16.3357
1594.51	16.7809
1594.77	17.2524
1595.02	17.7622
1595.28	18.3016
1595.54	18.8819
1595.79	19.4876
1596.05	20.127
1596.3	20.7934
1596.56	21.483
1596.81	22.2046
1597.07	22.9623
1597.32	23.7511
1597.58	24.5571
1597.84	25.4001
1598.09	26.2618
1598.35	27.1623
1598.6	28.0534
1598.86	28.9895
1599.12	29.9458
1599.37	30.9479
1599.63	31.981
1599.88	33.0521
1600.14	34.1461
1600.39	35.28
1600.65	36.4342
1600.9	37.577
1601.16	38.7433
1601.42	39.873
1601.67	40.9367
1601.93	41.9238
1602.18	42.8237
1602.44	44.2442
1602.69	45.2431
1602.95	46.2645
1603.2	47.0864
1603.46	48.2469
1603.71	49.3887
1603.97	49.9797
1604.22	50.6959
1604.48	51.3792
1604.74	51.8336
1604.99	52.2094
1605.24	52.5681
1605.5	52.893
1605.76	53.1537
1606.01	53.363
1606.27	53.466
1606.52	53.4701
1606.78	53.3874
1607.03	53.19
1607.29	52.8754
1607.54	52.4487
1607.8	51.9155
1608.05	51.2789
1608.31	50.5724
1608.56	49.7843
1608.82	48.9155
1609.07	47.9234
1609.33	46.8359
1609.58	45.6791
1609.84	44.5062
1610.09	43.3014
1610.35	41.9858
1610.6	40.5668
1610.85	39.1307
1611.11	37.7519
1611.36	36.3649
1611.62	35.0327
1611.87	33.7548
1612.13	32.5727
1612.38	31.4914
1612.64	30.4503
1612.89	29.4833
1613.15	28.6207
1613.4	27.8041
1613.66	27.0232
1613.91	26.3127
1614.17	25.6825
1614.42	25.1111
1614.68	24.596
1614.93	24.128
1615.18	23.667
1615.44	23.3037
1615.69	23.0244
1615.95	22.8237
1616.2	22.5539
1616.46	22.3109
1616.71	22.1424
1616.97	21.9449
1617.22	21.7253
1617.47	21.4965
1617.73	21.346
1617.98	21.4046
1618.24	21.4348
1618.49	21.2855
1618.75	21.1441
1619	20.9947
1619.25	20.9239
1619.51	20.8827
1619.76	20.9253
1620.02	20.9296
1620.27	20.967
1620.52	20.9717
1620.78	20.9756
1621.03	21.0031
1621.29	21.0383
1621.54	21.122
1621.8	21.2526
1622.05	21.3754
1622.3	21.5027
1622.56	21.6372
1622.81	21.7617
1623.07	21.9122
1623.32	22.0968
1623.57	22.3024
1623.83	22.5314
1624.08	22.7807
1624.34	23.0426
1624.59	23.3665
1624.84	23.7343
1625.1	24.1205
1625.35	24.4596
1625.6	24.8098
1625.86	25.2421
1626.11	25.6047
1626.37	26.1176
1626.62	26.5979
1626.87	27.1256
1627.13	27.6453
1627.38	28.2019
1627.63	28.8035
1627.89	29.4486
1628.14	30.1451
1628.4	30.8604
1628.65	31.6257
1628.9	32.4076
1629.16	33.2639
1629.41	34.2115
1629.66	35.2694
1629.92	36.4335
1630.17	37.6994
1630.42	39.0119
1630.68	40.3988
1630.93	41.9022
1631.18	43.494
1631.44	44.9867
1631.69	46.7042
1631.94	48.4406
1632.2	50.2436
1632.45	52.0408
1632.7	53.8502
1632.96	55.6581
1633.21	57.4842
1633.46	59.2626
1633.72	60.9569
1633.97	62.5069
1634.22	63.8917
1634.48	65.1325
1634.73	66.0669
1634.98	66.8353
1635.24	67.3455
1635.49	67.6413
1635.74	67.755
1636	67.7219
1636.25	67.4905
1636.5	67.0028
1636.75	66.2907
1637.01	65.3601
1637.26	64.2487
1637.51	62.9931
1637.77	61.6356
1638.02	60.1544
1638.27	58.4396
1638.52	56.6092
1638.78	54.8955
1639.03	53.2181
1639.28	51.5845
1639.54	49.9713
1639.79	48.402
1640.04	46.9676
1640.29	45.5678
1640.55	44.2412
1640.8	42.9804
1641.05	41.7294
1641.3	40.639
1641.56	39.7677
1641.81	38.8662
1642.06	37.9268
1642.32	37.0756
1642.57	36.2819
1642.82	35.569
1643.07	34.961
1643.33	34.5294
1643.58	34.0586
1643.83	33.6991
1644.08	33.4157
1644.34	33.2145
1644.59	33.065
1644.84	32.9565
1645.09	32.8934
1645.35	32.8589
1645.6	32.8272
1645.85	32.7567
1646.1	32.8199
1646.36	32.9489
1646.61	33.0893
1646.86	33.2418
1647.11	33.3858
1647.36	33.5332
1647.62	33.7287
1647.87	33.9637
1648.12	34.2271
1648.37	34.4853
1648.63	34.7293
1648.88	34.965
1649.13	35.1653
1649.38	35.4329
1649.63	35.6442
1649.89	35.9021
1650.14	36.1869
1650.39	36.4494
1650.64	36.707
1650.89	36.9885
1651.15	37.2845
1651.4	37.53
1651.65	37.7236
1651.9	37.7987
1652.15	38.0884
1652.41	38.3959
1652.66	38.6649
1652.91	38.9272
1653.16	39.191
1653.41	39.4342
1653.66	39.637
1653.92	39.8417
1654.17	40.0314
1654.42	40.216
1654.67	40.4096
1654.92	40.6725
1655.18	40.8647
1655.43	41.0505
1655.68	41.2427
1655.93	41.4478
1656.18	41.6508
1656.43	41.8332
1656.69	41.9718
1656.94	42.1378
1657.19	42.3094
1657.44	42.463
1657.69	42.564
1657.94	42.6264
1658.2	42.6715
1658.45	42.6945
1658.7	42.7136
1658.95	42.7451
1659.2	42.7678
1659.45	42.7878
1659.7	42.7774
1659.95	42.775
1660.21	42.7876
1660.46	42.7362
1660.71	42.6617
1660.96	42.5367
1661.21	42.4105
1661.46	42.2745
1661.71	42.1395
1661.97	41.9528
1662.22	41.7633
1662.47	41.5433
1662.72	41.3198
1662.97	41.0843
1663.22	40.8284
1663.47	40.5532
1663.72	40.2662
1663.97	39.9663
1664.23	39.6375
1664.48	39.2801
1664.73	38.8958
1664.98	38.4599
1665.23	38.0118
1665.48	37.5423
1665.73	37.0216
1665.98	36.4497
1666.23	35.9392
1666.49	35.4427
1666.74	34.9532
1666.99	34.4833
1667.24	34.0341
1667.49	33.5621
1667.74	33.0403
1667.82	32.8673
1668.07	32.314
1668.33	31.7609
1668.59	31.1738
1668.84	30.554
1669.09	29.9555
1669.35	29.3778
1669.6	28.8195
1669.86	28.3096
1670.11	27.7702
1670.37	27.2716
1670.62	26.7924
1670.88	26.2956
1671.13	25.7921
1671.39	25.2829
1671.64	24.7884
1671.9	24.3078
1672.15	23.8159
1672.41	23.3316
1672.66	22.8546
1672.92	22.38
1673.17	21.9168
1673.43	21.4442
1673.68	21.0142
1673.94	20.6162
1674.19	20.2548
1674.45	19.8997
1674.7	19.566
1674.95	19.2617
1675.21	18.9898
1675.46	18.7208
1675.72	18.4661
1675.97	18.1855
1676.23	17.8219
1676.48	17.4474
1676.74	17.1264
1676.99	16.8242
1677.24	16.5159
1677.5	16.247
1677.75	16.0572
1678.01	15.8801
1678.26	15.7161
1678.52	15.536
1678.77	15.3928
1679.02	15.3093
1679.28	15.2837
1679.53	15.3712
1679.79	15.4587
1680.04	15.9186
1680.3	16.5483
1680.55	17.6727
1680.8	19.1442
1681.06	21.1422
1681.31	22.1664
1681.57	21.7614
1681.82	18.8842
1682.07	16.3101
1682.33	15.6555
1682.58	15.6766
1682.84	15.4831
1683.09	15.3921
1683.34	15.3309
1683.6	15.6143
1683.85	15.5911
1684.11	15.6906
1684.36	15.8043
1684.61	16.0036
1684.87	16.2798
1685.12	16.5317
1685.38	16.8315
1685.63	17.1557
1685.88	17.4982
1686.14	17.8448
1686.39	18.179
1686.64	18.5598
1686.9	18.9741
1687.15	19.4082
1687.41	19.8818
1687.66	20.3894
1687.91	20.923
1688.17	21.5045
1688.42	22.1238
1688.67	22.7884
1688.93	23.4736
1689.18	24.173
1689.43	24.8921
1689.69	25.7528
1689.94	26.605
1690.2	27.5091
1690.45	28.5017
1690.7	29.5949
1690.96	30.755
1691.21	31.9411
1691.46	33.1898
1691.72	34.5164
1691.97	35.9701
1692.22	37.5006
1692.48	39.143
1692.73	40.8689
1692.98	42.6602
1693.24	44.4945
1693.49	46.4672
1693.74	48.5411
1694	50.6248
1694.25	52.7055
1694.5	54.8549
1694.76	57.1865
1695.01	59.5928
1695.26	62.0379
1695.52	64.5042
1695.77	66.9286
1696.02	69.2833
1696.27	71.5954
1696.53	73.8527
1696.78	76.1055
1697.03	78.2473
1697.29	80.2261
1697.54	82.0733
1697.79	83.7237
1698.05	85.1728
1698.3	86.488
1698.55	87.531
1698.81	88.3942
1699.06	88.9731
1699.31	89.3502
1699.56	89.4814
1699.82	89.3682
1700.07	89.0049
1700.32	88.3042
1700.58	87.4098
1700.83	86.0959
1701.08	84.5166
1701.33	82.681
1701.59	80.5758
1701.84	78.2578
1702.09	75.8316
1702.34	73.4645
1702.6	71.0548
1702.85	68.5845
1703.1	66.1552
1703.35	63.7716
1703.61	61.48
1703.86	59.3206
1704.11	57.1646
1704.36	55.0577
1704.62	52.9612
1704.87	50.9748
1705.12	49.1103
1705.38	47.3522
1705.63	45.6443
1705.88	43.9907
1706.13	42.39
1706.38	40.8611
1706.64	39.4199
1706.89	38.072
1707.14	36.8428
1707.39	35.7139
1707.65	34.6668
1707.9	33.7086
1708.15	32.8262
1708.4	32.0232
1708.66	31.2718
1708.91	30.5157
1709.16	29.7648
1709.41	29.077
1709.66	28.4755
1709.92	27.8782
1710.17	27.3256
1710.42	26.8083
1710.67	26.3256
1710.92	25.8823
1711.18	25.5083
1711.43	25.1821
1711.68	24.9043
1711.93	24.6622
1712.18	24.4507
1712.44	24.309
1712.69	24.2393
1712.94	24.1422
1713.19	23.9715
1713.45	23.8071
1713.7	23.6917
1713.95	23.6144
1714.2	23.5675
1714.45	23.5702
1714.7	23.5969
1714.96	23.6444
1715.21	23.7071
1715.46	23.8104
1715.71	23.9072
1715.96	24.0255
1716.22	24.1433
1716.47	24.2993
1716.72	24.4644
1716.97	24.6259
1717.22	24.7988
1717.47	24.9773
1717.73	25.1963
1717.98	25.4425
1718.23	25.6924
1718.48	25.9776
1718.73	26.2911
1718.98	26.6282
1719.23	26.9785
1719.49	27.3329
1719.74	27.6872
1719.99	28.0415
1720.24	28.3947
1720.49	28.71
1720.74	29.0545
1721	29.3799
1721.25	29.6187
1721.5	30.1271
1721.75	30.4515
1722	30.7795
1722.25	31.1121
1722.5	31.4448
1722.75	31.7523
1723.01	32.042
1723.26	32.323
1723.51	32.5817
1723.76	32.8212
1724.01	33.0976
1724.26	33.3286
1724.51	33.5385
1724.76	33.6747
1725.02	33.8077
1725.27	33.9354
1725.52	34.0251
1725.77	34.0836
1726.02	34.1325
1726.27	34.1574
1726.52	34.1867
1726.77	34.2382
1727.02	34.2844
1727.27	34.3296
1727.53	34.3333
1727.78	34.3102
1728.03	34.3119
1728.28	34.2884
1728.53	34.2435
1728.78	34.1717
1729.03	34.0642
1729.28	33.9383
1729.53	33.7965
1729.78	33.6755
1730.03	33.5446
1730.29	33.3716
1730.54	33.1975
1730.79	33.0187
1731.04	32.8127
1731.29	32.6157
1731.54	32.4418
1731.79	32.1908
1732.04	31.9419
1732.29	31.6714
1732.54	31.4283
1732.79	31.1944
1733.04	30.9708
1733.29	30.719
1733.54	30.4461
1733.79	30.143
1734.04	29.8831
1734.3	29.6327
1734.55	29.4004
1734.8	29.1639
1735.05	28.9295
1735.3	28.6685
1735.55	28.4133
1735.8	28.1788
1736.05	27.962
1736.3	27.7196
1736.55	27.4728
1736.8	27.2059
1737.05	26.9783
1737.3	26.7617
1737.55	26.5555
1737.8	26.3691
1738.05	26.1684
1738.3	25.9788
1738.55	25.8129
1738.8	25.6476
1739.05	25.4421
1739.3	25.2607
1739.55	25.0744
1739.8	24.8743
1740.05	24.7034
1740.3	24.4783
1740.55	24.2162
1740.8	23.9531
1741.05	23.7111
1741.3	23.4853
1741.55	23.2459
1741.8	23.0068
1742.05	22.7582
1742.3	22.472
1742.55	22.1973
1742.8	21.9354
1743.05	21.6345
1743.3	21.3939
1743.55	21.1673
1743.8	20.9815
1744.05	20.8021
1744.3	20.6626
1744.55	20.5462
1744.8	20.4329
1745.05	20.3239
1745.3	20.2511
1745.55	20.1676
1745.8	20.0462
1746.05	19.8936
1746.3	19.7905
1746.55	19.7484
1746.8	19.6825
1747.05	19.6264
1747.3	19.6151
1747.55	19.6571
1747.8	19.7475
1748.05	19.8969
1748.3	20.0799
1748.54	20.2764
1748.79	20.503
1749.04	20.7572
1749.29	21.0204
1749.54	21.3228
1749.79	21.6981
1750.04	22.1041
1750.29	22.5503
1750.54	23.053
1750.79	23.6455
1751.04	24.2424
1751.29	24.8839
1751.54	25.5719
1751.79	26.3008
1752.04	27.0257
1752.29	27.8415
1752.54	28.771
1752.78	29.7703
1753.03	30.834
1753.28	31.9158
1753.53	33.133
1753.78	34.3647
1754.03	35.5772
1754.28	36.7994
1754.53	38.054
1754.78	39.3359
1755.03	40.6169
1755.28	41.924
1755.53	43.1831
1755.77	44.3692
1756.02	45.5475
1756.27	46.6691
1756.52	47.7201
1756.77	48.6723
1757.02	49.5306
1757.27	50.306
1757.52	50.9907
1757.77	51.5608
1758.01	51.9937
1758.26	52.2467
1758.51	52.3457
1758.76	52.2836
1759.01	52.083
1759.26	51.7291
1759.51	51.2313
1759.76	50.5591
1760	49.802
1760.25	49.0225
1760.5	48.202
1760.75	47.3584
1761	46.5074
1761.25	45.6598
1761.5	44.8192
1761.75	43.9742
1761.99	43.1235
1762.24	42.3429
1762.49	41.5591
1762.74	40.8297
1762.99	40.3334
1763.24	39.6952
1763.48	39.1437
1763.73	38.6474
1763.98	38.2137
1764.23	37.831
1764.48	37.67
1764.73	37.5677
1764.98	37.5453
1765.22	37.6458
1765.47	37.8159
1765.72	38.1508
1765.97	38.6253
1766.22	39.1873
1766.47	39.7991
1766.71	40.4562
1766.96	41.1292
1767.21	41.8349
1767.46	42.5495
1767.71	43.2942
1767.95	44.0219
1768.2	44.6972
1768.45	45.2754
1768.7	45.7939
1768.95	46.1949
1769.2	46.4635
1769.44	46.6259
1769.69	46.6335
1769.94	46.5245
1770.19	46.2937
1770.44	45.8868
1770.68	45.3033
1770.93	44.5664
1771.18	43.6804
1771.43	42.6986
1771.68	41.6175
1771.92	40.4406
1772.17	39.1625
1772.42	37.8179
1772.67	36.4191
1772.92	34.9455
1773.16	33.4585
1773.41	31.9476
1773.66	30.4493
1773.91	28.9626
1774.15	27.5056
1774.4	26.0952
1774.65	24.7674
1774.9	23.5178
1775.15	22.3463
1775.39	21.2531
1775.64	20.2268
1775.89	19.234
1776.14	18.4014
1776.38	17.5792
1776.63	16.842
1776.88	16.164
1777.13	15.4836
1777.37	14.8451
1777.62	14.2374
1777.87	13.6523
1778.12	13.0824
1778.36	12.5164
1778.61	11.985
1778.86	11.4821
1779.11	10.9918
1779.35	10.5228
1779.6	10.0836
1779.85	9.66089
1780.1	9.26006
1780.34	8.86511
1780.59	8.48805
1780.84	8.14326
1781.08	7.82269
1781.33	7.5274
1781.58	7.23481
1781.83	6.95423
1782.07	6.67349
1782.32	6.41984
1782.57	6.17731
1782.82	5.97585
1783.06	5.79539
1783.31	5.65514
1783.56	5.55161
1783.8	5.4761
1784.05	5.36149
1784.3	5.23752
1784.54	5.09427
1784.79	4.91835
1785.04	4.73873
1785.29	4.55797
1785.53	4.38039
1785.78	4.21782
1786.03	4.06738
1786.27	3.92306
1786.52	3.78589
1786.77	3.64919
1787.01	3.52358
1787.26	3.3995
1787.51	3.25161
1787.75	3.11695
1788	3.01862
1788.25	2.96138
1788.5	2.92637
1788.74	2.88673
1788.99	2.82529
1789.24	2.77633
1789.48	2.7336
1789.73	2.70683
1789.98	2.68728
1790.22	2.65235
1790.47	2.61675
1790.72	2.58345
1790.96	2.55439
1791.21	2.51288
1791.46	2.45744
1791.7	2.39535
1791.95	2.32385
1792.2	2.267
1792.44	2.20789
1792.69	2.11123
1792.93	2.04588
1793.18	2.00355
1793.43	1.97879
1793.67	1.94393
1793.92	1.91171
1794.17	1.81984
1794.41	1.72572
1794.66	1.60536
1794.91	1.45159
1795.15	1.38966
1795.4	1.41186
1795.64	1.43567
1795.89	1.45328
1796.14	1.44897
1796.38	1.4548
1796.63	1.45651
1796.88	1.4474
1797.12	1.40656
1797.37	1.35386
1797.61	1.29777
1797.86	1.25231
1798.11	1.2131
1798.35	1.18177
1798.6	1.13585
1798.84	1.05181
1799.09	0.945602
1799.34	0.854441
1799.58	0.785248
1799.83	0.724987
1800.07	0.692428
1800.32	0.674706
1800.57	0.662491
1800.81	0.652075
1801.06	0.646503
1801.3	0.640045
1801.55	0.651672
1801.8	0.665591
1802.04	0.667965
1802.29	0.647832
1802.53	0.625865
1802.78	0.606505
1803.02	0.5956
1803.27	0.577696
1803.52	0.555081
1803.76	0.536844
1804.01	0.530035
1804.25	0.520793
1804.5	0.531205
1804.74	0.553248
1804.99	0.572788
1805.24	0.581681
1805.48	0.594014
1805.73	0.581295
1805.97	0.531287
1806.22	0.473743
1806.46	0.413032
1806.71	0.386651
1806.96	0.390135
1807.2	0.401103
1807.45	0.382767
1807.69	0.366258
1807.94	0.371758
1808.18	0.381286
1808.43	0.363442
1808.67	0.339139
1808.92	0.314747
1809.16	0.289323
1809.41	0.267683
1809.65	0.250919
1809.9	0.243286
1810.14	0.206433
1810.39	0.157841
1810.64	0.119947
1810.88	0.0962358
1811.13	0.0898077
1811.37	0.107525
1811.62	0.142432
1811.86	0.191166
1812.11	0.237463
1812.35	0.273703
1812.6	0.298973
1812.84	0.315242
1813.09	0.30162
1813.33	0.275701
1813.58	0.256609
1813.82	0.217985
1814.07	0.174507
1814.31	0.141895
1814.56	0.126909
1814.8	0.121955
1815.05	0.121253
1815.29	0.124721
1815.54	0.151038
1815.78	0.195332
1816.03	0.228454
1816.27	0.260385
1816.52	0.291233
1816.76	0.277528
1817	0.264703
1817.25	0.237247
1817.49	0.209134
1817.74	0.173073
1817.98	0.137
1818.23	0.100183
1818.47	0.0678549
1818.72	0.0365622
1818.96	0.00958124
1819.21	-0.0168567
1819.45	-0.0253949
1819.7	-0.0250665
1819.94	-0.02702
1820.19	-0.0118501
1820.43	0.0207255
1820.67	0.0617764
1820.92	0.084247
1821.16	0.0880762
1821.41	0.0972142
1821.65	0.106243
1821.9	0.126195
1822.14	0.119026
1822.39	0.101263
1822.63	0.0495335
1822.87	0.00500187
1823.12	-0.0242362
1823.36	-0.0325118
1823.61	-0.0178052
1823.85	0.00258961
1824.1	0.0246367
1824.34	0.0242555
1824.58	0.0310331
1824.83	0.0323924
1825.07	0.0275209
1825.32	0.0122143
1825.56	-0.0133059
1825.81	-0.0198307
1826.05	-0.00300541
1826.29	0.0380703
1826.54	0.0738205
1826.78	0.0119294
1827.03	0.0136469
1827.27	0.00428457
1827.52	-0.00894785
1827.76	-0.0443422
1828	-0.0844895
1828.25	-0.119865
1828.49	-0.135034
1828.73	-0.121922
1828.98	-0.0822285
1829.22	-0.0596848
1829.47	-0.026016
1829.71	-0.000326057
1829.96	0.0254683
1830.2	-0.0472906
1830.44	-0.100706
1830.69	-0.092764
1830.93	0.00716822
1831.17	0.0693574
1831.42	-0.0686553
1831.66	-0.235415
1831.91	-0.143517
1832.15	-0.101284
1832.39	-0.0544464
1832.64	0.0522932
1832.88	0.0777897
1833.12	0.130017
1833.37	0.111457
1833.61	0.101886
1833.86	0.0513301
1834.1	-0.00267751
1834.34	0.00416963
1834.59	0.0134776
1834.83	0.00642694
1835.07	-0.0318086
1835.32	-0.0629844
1835.56	-0.0953579
1835.8	-0.110067
1836.05	-0.118474
1836.29	-0.10644
1836.53	-0.0926793
1836.78	-0.0937425
1837.02	-0.111026
1837.26	-0.125883
1837.51	-0.129117
1837.75	-0.113017
1837.99	-0.0940765
1838.24	-0.0574871
1838.48	-0.0197135
1838.72	0.0156071
1838.97	0.0584367
1839.21	0.117057
1839.45	0.163776
1839.7	0.168075
1839.94	0.170373
1840.18	0.17154
1840.43	0.161153
1840.67	0.14167
1840.91	0.118648
1841.16	0.0845549
1841.4	0.0568983
1841.64	0.0250274
1841.88	-0.00616715
1842.13	-0.0223537
1842.37	-0.0188597
1842.61	0.00715559
1842.86	0.0515433
1843.1	0.0459913
1843.34	0.0299823
1843.59	0.0292536
1843.83	0.0332807
1844.07	0.030535
1844.31	0.0188064
1844.56	0.0196801
1844.8	0.0762128
1845.04	0.0637392
1845.29	0.0517927
1845.53	0.0415822
1845.77	0.0418623
1846.02	-0.0259978
1846.26	-0.0604503
1846.5	-0.0808553
1846.74	-0.0942182
1846.99	-0.0982752
1847.23	-0.0962404
1847.47	-0.0841203
1847.71	-0.0249531
1847.96	0.0154664
1848.2	0.027218
1848.44	0.0840743
1848.68	0.137472
1848.93	0.204455
1849.17	0.242968
1849.41	0.2487
1849.65	0.234104
1849.9	0.187414
