#Acq. time (s)=	10
#Accumulations=	3
#Range=	Off
#Autofocus=	At all pixels
#SWIFT=	Off
#AutoExposure=	Off
#Spike filter=	Multiple accum.
#Delay time (s)=	0
#Binning=	1
#Readout mode=	Signal
#DeNoise=	Off
#ICS correction=	On
#Dark correction=	Off
#Inst. Process=	Off
#Detector temperature (°C)=	-69.95
#Instrument=	LabRAM S3000
#Detector=	Synapse
#Objective=	x100
#Grating=	1800
#ND Filter=	10%
#Laser (nm)=	632.81 
#Spectro (cm-¹)=	521.205
#Slit=	100.021
#Hole=	199.981
#Microscope=	Principal
#StageXY=	Märzhauser
#StageZ=	Märzhauser
#X (µm)=	-3557.1
#Y (µm)=	-0.2
#Z (µm)=	589.1
#Full time(mm:ss)=	2:06
#Project=	
#Sample=	
#Site=	
#Title=	SOP_sample1_timescan
#Remark=	
#Date=	09.07.2019 13:51
#Operator=	
#Acquired=	09.07.2019 13:51:44
	358.26	358.585	358.911	359.235	359.561	359.886	360.21	360.536	360.861	361.186	361.512	361.836	362.161	362.487	362.811	363.135	363.46	363.786	364.11	364.435	364.76	365.085	365.409	365.733	366.059	366.384	366.708	367.032	367.358	367.682	368.006	368.331	368.655	368.981	369.305	369.629	369.953	370.277	370.601	370.927	371.251	371.575	371.899	372.223	372.547	372.871	373.195	373.521	373.845	374.169	374.493	374.817	375.141	375.465	375.789	376.113	376.437	376.76	377.084	377.408	377.732	378.056	378.38	378.703	379.027	379.351	379.675	379.999	380.322	380.646	380.97	381.293	381.617	381.941	382.264	382.588	382.912	383.235	383.559	383.882	384.205	384.528	384.852	385.175	385.499	385.822	386.146	386.469	386.791	387.115	387.438	387.761	388.085	388.408	388.73	389.054	389.377	389.7	390.024	390.345	390.669	390.992	391.315	391.637	391.96	392.284	392.607	392.929	393.252	393.575	393.898	394.22	394.543	394.866	395.188	395.511	395.834	396.155	396.479	396.802	397.123	397.446	397.769	398.091	398.414	398.737	399.058	399.381	399.703	400.025	400.348	400.67	400.993	401.314	401.637	401.958	402.281	402.604	402.925	403.248	403.569	403.892	404.213	404.536	404.857	405.18	405.501	405.824	406.145	406.468	406.789	407.112	407.433	407.754	408.076	408.397	408.72	409.041	409.364	409.685	410.006	410.328	410.649	410.972	411.293	411.614	411.936	412.257	412.578	412.9	413.221	413.542	413.864	414.185	414.506	414.828	415.149	415.47	415.792	416.113	416.434	416.755	417.077	417.398	417.718	418.04	418.361	418.682	419.002	419.323	419.645	419.966	420.286	420.607	420.928	421.25	421.57	421.891	422.211	422.532	422.854	423.174	423.495	423.815	424.136	424.456	424.777	425.097	425.419	425.739	426.06	426.38	426.7	427.021	427.341	427.661	427.981	428.302	428.622	428.942	429.263	429.583	429.903	430.223	430.543	430.863	431.184	431.504	431.824	432.144	432.464	432.784	433.104	433.424	433.744	434.065	434.385	434.705	435.025	435.345	435.664	435.984	436.303	436.623	436.943	437.263	437.583	437.902	438.222	438.541	438.861	439.18	439.5	439.82	440.14	440.458	440.778	441.098	441.417	441.737	442.055	442.375	442.695	443.014	443.333	443.652	443.972	444.292	444.61	444.929	445.249	445.568	445.887	446.206	446.526	446.844	447.163	447.483	447.801	448.12	448.44	448.758	449.077	449.396	449.714	450.034	450.352	450.671	450.99	451.308	451.627	451.945	452.265	452.584	452.902	453.221	453.539	453.858	454.176	454.495	454.813	455.132	455.449	455.769	456.086	456.405	456.723	457.042	457.36	457.679	457.996	458.315	458.633	458.952	459.27	459.589	459.906	460.224	460.543	460.86	461.179	461.496	461.814	462.133	462.45	462.769	463.086	463.404	463.723	464.04	464.357	464.676	464.993	465.311	465.629	465.947	466.264	466.581	466.9	467.217	467.534	467.853	468.17	468.487	468.804	469.123	469.44	469.757	470.074	470.393	470.71	471.027	471.344	471.661	471.98	472.297	472.614	472.931	473.248	473.565	473.882	474.2	474.517	474.834	475.151	475.467	475.784	476.101	476.418	476.736	477.053	477.37	477.687	478.004	478.32	478.637	478.954	479.271	479.587	479.904	480.221	480.537	480.854	481.171	481.487	481.804	482.12	482.437	482.754	483.07	483.387	483.703	484.02	484.336	484.653	484.969	485.286	485.601	485.917	486.234	486.55	486.867	487.183	487.499	487.816	488.132	488.447	488.763	489.08	489.396	489.712	490.029	490.343	490.66	490.976	491.292	491.608	491.923	492.239	492.555	492.872	493.186	493.503	493.819	494.135	494.449	494.766	495.082	495.398	495.712	496.028	496.344	496.659	496.975	497.291	497.605	497.921	498.237	498.552	498.868	499.184	499.498	499.814	500.13	500.444	500.76	501.074	501.39	501.705	502.02	502.336	502.651	502.966	503.281	503.596	503.911	504.226	504.541	504.856	505.172	505.486	505.802	506.116	506.43	506.746	507.06	507.375	507.69	508.005	508.319	508.635	508.949	509.264	509.578	509.892	510.208	510.522	510.837	511.151	511.465	511.781	512.094	512.41	512.724	513.038	513.353	513.667	513.981	514.296	514.61	514.924	515.239	515.553	515.866	516.18	516.495	516.809	517.123	517.438	517.752	518.065	518.379	518.694	519.008	519.322	519.635	519.949	520.264	520.577	520.891	521.205	521.518	521.833	522.147	522.46	522.774	523.087	523.401	523.714	524.029	524.342	524.656	524.969	525.283	525.596	525.909	526.223	526.536	526.849	527.164	527.478	527.791	528.104	528.417	528.731	529.044	529.357	529.67	529.984	530.297	530.61	530.923	531.236	531.549	531.863	532.176	532.489	532.802	533.114	533.427	533.74	534.053	534.366	534.679	534.992	535.305	535.618	535.931	536.244	536.555	536.868	537.181	537.494	537.807	538.12	538.431	538.744	539.057	539.37	539.682	539.994	540.307	540.619	540.932	541.245	541.556	541.869	542.182	542.494	542.806	543.118	543.431	543.744	544.055	544.367	544.68	544.991	545.304	545.616	545.927	546.24	546.553	546.864	547.176	547.489	547.8	548.112	548.425	548.736	549.048	549.359	549.671	549.984	550.295	550.607	550.918	551.23	551.541	551.854	552.165	552.477	552.789	553.1	553.412	553.723	554.035	554.346	554.658	554.969	555.281	555.592	555.903	556.215	556.525	556.838	557.148	557.46	557.771	558.083	558.394	558.704	559.016	559.327	559.639	559.949	560.26	560.572	560.883	561.193	561.505	561.815	562.126	562.438	562.748	563.059	563.37	563.681	563.991	564.303	564.613	564.924	565.234	565.546	565.856	566.167	566.477	566.789	567.099	567.409	567.719	568.03	568.341	568.651	568.962	569.272	569.582	569.894	570.204	570.514	570.824	571.134	571.444	571.754	572.066	572.376	572.686	572.996	573.306	573.616	573.926	574.236	574.546	574.856	575.166	575.476	575.787	576.097	576.407	576.717	577.027	577.336	577.646	577.956	578.266	578.576	578.885	579.195	579.505	579.815	580.123	580.433	580.743	581.052	581.362	581.672	581.981	582.291	582.601	582.91	583.22	583.528	583.838	584.147	584.457	584.766	585.076	585.385	585.693	586.003	586.313	586.622	586.931	587.241	587.549	587.858	588.168	588.477	588.785	589.094	589.404	589.713	590.021	590.33	590.64	590.949	591.257	591.566	591.875	592.183	592.493	592.802	593.11	593.419	593.728	594.036	594.345	594.654	594.962	595.271	595.58	595.888	596.197	596.504	596.814	597.123	597.43	597.739	598.047	598.356	598.663	598.972	599.281	599.589	599.898	600.205	600.514	600.822	601.131	601.438	601.747	602.054	602.363	602.671	602.979	603.287	603.594	603.903	604.21	604.519	604.826	605.135	605.442	605.75	606.058	606.366	606.674	606.982	607.289	607.597	607.905	608.212	608.52	608.828	609.135	609.443	609.75	610.058	610.366	610.673	610.98	611.287	611.596	611.903	612.21	612.518	612.825	613.132	613.439	613.748	614.055	614.362	614.668	614.975	615.284	615.591	615.897	616.204	616.511	616.818	617.126	617.433	617.74	618.047	618.353	618.66	618.967	619.274	619.582	619.889	620.195	620.502	620.809	621.115	621.422	621.729	622.035	622.342	622.648	622.955	623.262	623.568	623.875	624.181	624.488	624.794	625.101	625.407	625.714	626.02	626.327	626.633	626.94	627.246	627.552	627.859	628.165	628.472	628.778	629.083	629.389	629.696	630.002	630.308	630.615	630.921	631.226	631.532	631.838	632.144	632.451	632.757	633.062	633.368	633.674	633.98	634.286	634.591	634.897	635.203	635.509	635.814	636.12	636.426	636.732	637.037	637.343	637.649	637.953	638.259	638.565	638.87	639.176	639.482	639.786	640.092	640.398	640.702	641.008	641.314	641.619	641.924	642.23	642.535	642.84	643.145	643.451	643.755	644.061	644.366	644.671	644.976	645.281	645.586	645.891	646.196	646.5	646.806	647.11	647.416	647.72	648.026	648.33	648.635	648.94	649.245	649.549	649.853	650.159	650.463	650.768	651.072	651.378	651.682	651.986	652.291	652.595	652.899	653.205	653.509	653.814	654.118	654.422	654.727	655.031	655.335	655.639	655.944	656.248	656.552	656.857	657.161	657.465	657.768	658.074	658.377	658.681	658.985	659.29	659.594	659.897	660.201	660.506	660.81	661.114	661.417	661.721	662.024	662.329	662.633	662.937	663.24	663.544	663.847	664.151	664.454	664.759	665.063	665.366	665.67	665.973	666.277	666.58	666.883	667.187	667.49	667.794	668.097	668.4	668.704	669.007	669.31	669.614	669.917	670.22	670.524	670.827	671.13	671.433	671.737	672.04	672.343	672.646	672.949	673.253	673.556	673.859	674.161	674.464	674.767	675.07	675.373	675.676	675.979	676.282	676.584	676.887	677.19	677.493	677.796	678.099	678.4	678.703	679.006	679.309
0	21.8671	21.8615	21.8557	15.6072	22.6253	16.3815	19.5009	20.2815	22.6228	19.5023	17.9401	21.445	21.0481	19.0922	18.6969	17.1358	13.241	20.2533	19.4776	16.3633	18.7007	17.1392	20.2487	20.63	14.786	17.8946	16.7258	18.282	25.2866	18.6769	16.347	21.0252	24.9284	20.6512	22.2152	17.9298	22.606	17.9259	15.5838	17.5264	17.9101	21.7978	19.849	21.7971	18.3001	21.036	21.0463	19.8834	22.6132	19.0993	23.7658	20.6387	18.6848	22.575	21.0228	16.7495	23.779	17.556	17.9575	20.306	16.0094	18.7361	18.7275	17.9406	19.8875	20.279	26.5254	24.583	18.7355	18.3491	13.2749	17.9594	19.1278	21.4656	19.1202	14.0459	21.0691	18.7305	17.9535	18.3472	14.8353	21.4727	21.8632	17.9604	19.1358	18.752	17.1969	18.3767	21.1186	14.0794	16.4237	18.7669	17.2022	19.55	21.1179	17.9913	21.1183	19.5485	18.7602	17.5843	16.4137	13.2927	18.7771	21.1362	23.1018	22.7125	18.0109	23.4865	20.7414	19.9564	23.0877	21.1341	19.9631	21.922	19.181	18.7869	17.2183	21.1285	18.7795	18.7794	23.8663	20.346	21.912	17.217	17.9998	18	19.1746	19.959	18.0045	20.7471	16.4422	19.5728	15.6546	18.7788	18.7712	20.3285	16.4159	17.197	18.7624	21.8939	18.3797	16.4281	17.9955	18.7787	20.7332	20.7297	23.0727	22.6803	15.6429	16.8194	21.9081	20.3437	18.7751	24.633	17.9782	21.0975	17.1875	20.3122	21.0946	17.1886	19.5305	19.9161	13.2725	21.0713	17.1634	23.4005	19.8913	11.7037	17.9526	21.4732	19.5256	22.6499	20.3026	23.028	22.6306	21.066	19.5054	24.969	22.2404	17.9499	21.0729	19.5124	17.9508	19.1189	24.1847	8.57834	23.776	21.4317	22.6003	25.7238	23.3953	20.2856	24.1965	22.642	19.1323	23.8207	18.3547	20.3063	24.9876	16.3926	28.0904	21.0605	23.7866	24.958	19.5035	26.5342	27.7138	22.6438	23.8161	29.672	21.0837	24.9942	24.6161	21.5057	25.8266	30.9328	25.4595	18.8015	25.8484	24.279	27.4135	24.2879	25.867	27.0564	18.0454	27.0765	25.12	24.7318	28.2688	21.5957	25.9138	22.7689	25.9035	22.7597	19.6208	17.2713	29.4561	22.7952	21.6297	20.4576	22.8188	19.2729	21.2315	23.9769	15.7217	25.1593	27.1335	22.4213	18.8848	20.8544	20.8577	22.8328	23.2387	18.9187	16.565	18.1526	19.3438	21.3223	19.3503	15.797	19.7464	21.7204	20.5351	19.7463	17.3803	22.9194	26.0943	20.9654	19.7861	16.6229	22.1624	18.993	23.7395	21.7632	17.0189	20.5876	19.8024	17.4309	22.1886	15.8503	18.2286	22.1925	18.2316	20.6135	20.6182	20.6223	21.0211	20.624	20.2242	22.5978	18.2314	17.4341	15.8466	19.016	15.0574	18.234	20.6216	21.4241	18.2563	21.8332	15.0871	15.0896	20.653	22.2466	23.0451	15.894	17.4816	22.6412	17.4719	20.2448	18.2551	15.0777	16.6635	20.2338	17.8526	12.6937	15.8639	19.0321	16.6501	13.4782	19.8236	19.8282	22.2123	18.2475	23.7994	19.432	21.4082	17.4372	23.3718	20.5897	18.2068	18.5984	18.599	20.1879	19.8013	16.6404	19.0216	19.8118	23.7639	19.7911	22.9432	16.6054	18.971	20.1528	18.9653	20.1488	19.7511	18.9573	20.9265	19.7361	21.7034	19.7257	17.356	22.8772	16.5664	18.9333	14.1987	19.7153	22.8593	20.8762	18.895	16.5245	21.2387	19.6625	25.1669	18.4811	21.2307	18.8668	22.7895	17.6749	20.8107	18.4512	18.8427	21.1988	21.9854	18.0597	22.7686	18.8382	19.2229	16.4683	19.2021	21.9329	18.7901	24.6521	21.125	19.9496	23.0802	14.8672	15.6514	19.9558	19.5619	16.8188	19.5501	20.7156	18.7545	25.7777	17.5686	21.0742	20.2874	17.9441	18.7254	19.5095	26.5384	17.9539	23.806	20.2889	19.1137	21.061	21.0612	23.4042	20.2866	18.7273	20.2862	21.4515	21.0537	18.3164	20.2559	20.2482	21.0212	21.018	21.017	19.4605	21.4081	22.5789	18.6898	20.2516	17.9171	21.0313	21.024	21.0131	21.7804	20.2189	24.8853	24.1137	25.6773	19.4564	23.3484	24.1245	18.6748	19.8403	18.6718	24.1151	22.1667	24.107	24.1051	18.6634	19.4451	21.3946	22.5644	19.0619	22.1686	27.6046	20.2116	22.5402	26.4264	22.5424	27.2092	17.1032	24.4854	28.7525	25.6341	27.1764	19.4049	26.3853	27.9368	27.5527	26.0062	23.2935	27.1773	22.9039	30.2724	32.5928	34.5277	28.3212	21.7298	36.8723	34.939	35.7187	38.823	40.3703	37.2583	46.1773	52.3794	49.2711	52.372	55.4739	61.292	70.9892	64.3927	83.0069	91.5319	119.058	124.089	146.961	177.588	236.511	288.818	329.064	396.383	453.182	446.448	397.563	366.94	281.789	231.489	191.629	147.103	140.883	100.602	100.186	83.1506	75.0279	69.6244	62.6781	56.8895	46.8358	51.4828	43.3492	40.6297	37.9077	43.3053	39.8089	36.317	33.2165	28.9623	20.0786	30.5039	25.4861	23.1723	28.5838	25.4972	31.2945	26.2717	25.1104	26.6518	25.875	27.0291	19.3034	25.4761	25.471	22.3779	26.2282	24.6771	21.9709	21.1951	22.735	18.4989	19.2757	21.211	22.3733	20.0577	26.6046	23.505	21.949	22.3232	23.8588	20.013	20.7879	17.3262	18.4801	24.6325	20.005	21.9196	20.7608	19.2221	16.917	16.1499	19.2269	22.6864	19.9924	17.684	19.2218	14.6103	18.4585	18.4619	21.5412	16.9255	21.5405	21.5397	17.6938	16.1573	17.6996	18.8576	16.9353	22.7084	18.857	21.162	13.8496	19.2355	15.3908	18.4737	13.8589	20.022	14.2475	18.8681	16.9422	21.5622	22.3309	20.0181	19.2441	21.5481	13.0801	16.5407	23.8496	21.1593	20.009	19.2442	18.4797	19.2558	23.1146	16.956	16.5749	20.0473	20.0483	17.3486	13.1065	20.8145	17.731	18.5042	20.8219	13.8848	16.2023	20.8339	15.8188	20.8348	15.4341	18.138	16.9845	13.1285	18.5402	19.3179	16.2302	17.0047	21.2559	15.8439	15.4551	17.3842	17.7688	20.8594	16.2263	18.9349	12.3687	16.2372	22.0394	17.7886	18.1789	15.4766	16.2579	13.1678	14.3354	20.9251	18.5979	17.0433	17.0394	20.9125	20.1455	15.5064	16.2931	22.1236	20.1875	12.4222	16.3003	23.6688	19.7865	17.8479	15.5236	13.976	18.6409	18.6455	18.6473	17.481	22.5289	16.3137	12.4315	12.4361	15.9416	16.3383	19.0678	17.1248	14.0115	16.3462	18.681	21.4058	18.6822	10.5092	16.7375	17.1269	17.1266	17.9039	19.8476	17.5101	14.3958	17.12	17.9023	15.5731	17.9167	24.1566	13.2491	18.3141	17.1422	17.9183	17.9167	16.748	15.9683	19.8607	18.6893	16.3506	17.1282	20.2438	15.9642	14.4097	15.1909	21.0335	17.1349	14.7925	19.0646	16.3323	18.269	13.9902	20.9853	15.5469	18.6594	21.7709	20.9916	14.7684	15.5407	22.1384	15.9204	18.6362	12.424	20.9666	15.5315	19.4138	19.7995	19.4066	17.0726	16.2914	19.0011	18.6085	16.2782	22.86	16.2671	18.5835	20.1254	15.8656	19.3496	20.9025	17.0355	13.9383	17.804	16.6319	18.5508	20.4689	17.7586	20.4606	20.4652	11.201	20.0879	16.2245	21.6291	14.6735	13.1258	15.4384	13.8908	20.4432	17.7356	20.0396	20.4155	16.9417	16.9357	16.1611	16.1571	19.2306	14.6128	20.3785	23.0679	19.9907	18.4512	18.4487	16.9082	19.9779	19.2053	22.274	16.1273	16.1258	10.7494	19.1918	17.6509	21.0945	20.6989	16.8552	18.3771	16.8386	15.3043	16.4515	21.0443	16.072	20.6652	13.0106	17.5996	17.5954	16.0617	23.3241	17.5875	19.117	17.5878	14.5281	16.8187	19.8718	12.2266	19.8671	17.9584	19.1082	22.17	20.2612	14.527	19.8775	16.0532	20.256	18.3444	21.4012	19.8707	21.7773	16.8063	19.0936	17.5643	15.2747	17.5707	15.2841	18.7283	13.7611	16.4356	19.8719	23.307	19.4846	15.2829	14.5207	17.5801	17.5812	17.5806	16.0501	18.3408	21.0139	17.5753	17.959	19.8729	13.7614	15.6767	14.5329	17.595	16.8303	14.9165	19.1208	22.1772	19.8822	16.0603	20.6534	18.3636	15.307	16.0756	18.375	14.1661	20.6792	15.3225	16.0945	17.6334	22.2388	18.7895	16.4883	19.1719	19.5572	18.7958	19.5726	14.9757	20.7463	19.2163	19.22	16.9149	17.6849	18.4558	19.2284	18.8484	21.547	18.859	17.3245	15.4042	15.024	19.2684	16.5772	18.8978	20.0624	20.0691	16.2136	20.0767	16.2162	20.0763	19.303	17.7586	21.6213	15.4475	18.1581	14.6888	19.3392	18.9638	15.8753	17.8165	14.7191	17.816	16.2634	17.0345	11.6137	20.1334	17.8147	15.1071	22.0819	17.0449	19.7537	16.2654	20.1377	18.2049	20.5365	18.2196	16.2872	13.1873	12.4119	18.2297	16.2917	14.7439	17.4664	12.4251	21.7482	15.5342	17.8615	10.094	20.1878	17.4737	14.7606	20.5942	20.2095	17.8771	17.8736	16.3154	20.9739	15.9249	17.8699	15.5421	15.5439	19.4288	17.4822	18.6421	14.7543	14.7521	18.6344	19.4141	19.0309	20.979	18.2635	17.4877	14.7659	19.4239	18.2528	17.0832	10.8695	19.4089	17.8557	10.0913	17.8496	18.2321	13.186	21.7174	15.5163	17.4645	18.6397	13.9866	16.3216	17.875	20.2007	17.8627	17.0797	15.5229	13.9689	18.6249	16.2969	18.6242	15.5174	12.4095	16.2787	19.367	20.1291	16.6372	20.1146	18.5676	19.7321	23.9941	16.2566	21.6744	16.6381	17.0171	16.2345	11.9761	16.6041	15.4396	21.994	20.0583	14.2676	21.5873	16.5708	17.7218	18.102	18.097	17.322	17.7018	19.236	16.9243	13.8455	23.074	14.6119	14.6089	16.5258	19.2078	20.7342	18.4216	19.1818	19.9437
44.4444	15.6193	15.6154	15.6112	14.8268	20.2848	17.9417	17.9408	15.6011	18.7223	18.3322	17.1601	20.2753	12.4729	21.8197	14.0227	19.083	18.3038	14.8005	14.0239	17.9217	16.3631	21.0344	19.4699	21.0192	23.7355	16.3385	22.9493	20.6159	18.6732	17.1205	17.5147	18.689	19.4753	16.3651	21.8254	17.54	19.4879	18.7053	19.4798	20.6422	20.2462	21.0193	20.2382	22.9648	22.5831	20.2569	18.7078	13.2556	17.1548	17.1504	25.7138	21.4176	21.7989	18.2936	22.58	17.139	21.0503	19.1165	19.519	18.3535	13.2761	21.4685	19.5079	21.4507	14.0382	19.4991	16.3834	20.2907	21.0775	12.493	19.1315	18.7403	18.7375	18.3433	21.0712	17.9475	23.0199	17.1696	21.0759	20.2991	20.301	18.3494	21.4728	14.8369	17.5737	16.7987	21.4961	17.2037	17.2078	16.0349	20.3341	19.9398	22.2846	21.505	19.5536	20.338	17.5986	23.4582	13.2885	20.3197	22.2757	19.548	14.8652	20.3534	21.144	15.6638	21.5348	21.9207	17.6106	14.8695	19.5658	14.8722	21.1374	19.9647	16.8323	19.1783	18.7836	19.5635	21.1269	18.3881	17.215	18.781	21.1294	17.217	15.2607	18.3913	19.566	14.8714	18.3959	23.0958	19.5741	19.5728	21.9164	16.4314	16.8158	19.1557	18.761	19.9329	20.3259	18.3752	19.9439	21.513	19.5603	19.5612	16.8213	17.9918	18.38	19.5519	18.7715	17.9928	20.3433	22.6911	21.9043	17.204	17.1965	21.0975	14.0625	19.9216	19.5321	19.9231	17.9681	17.1825	16.7858	21.0713	19.8939	23.4005	22.2314	19.5062	18.7331	20.3019	17.1825	22.6499	15.6174	21.4668	20.6797	22.2363	19.8955	15.6056	19.5091	23.4129	21.4631	18.3417	17.9508	19.1189	21.0641	21.0559	28.0634	20.2627	19.8726	22.9955	19.1062	24.1866	17.9522	26.5458	16.3991	16.4011	19.5262	22.6494	19.5215	21.8568	17.1663	25.7407	25.3464	15.5987	20.2837	21.4615	28.8848	17.9588	22.2544	25.7678	25.769	23.8226	22.6625	29.717	24.2614	19.5778	23.5011	26.6355	26.2401	29.3697	24.6722	20.3705	21.1639	23.9195	24.322	25.1144	21.195	24.3392	22.7721	19.6325	22.3801	23.5541	20.0163	18.0508	21.9752	28.6547	24.7432	20.4371	25.1691	19.6708	17.3108	24.3862	20.8384	23.1908	23.9755	21.2282	20.8417	21.6346	25.5731	21.2479	16.5288	20.4708	21.6632	18.1304	21.2978	22.0988	21.7124	23.6915	21.3248	20.5361	18.9565	20.5356	21.3249	23.3006	19.7504	19.3629	22.1406	22.1521	22.9519	18.9976	20.9751	18.993	15.8263	19.7847	22.5599	21.7754	22.5748	19.4117	23.7735	19.8129	17.8323	19.4184	15.0609	19.0279	19.8252	23.0018	19.038	16.6578	21.8104	21.8049	20.6094	19.8115	24.1661	18.2237	20.2085	19.0268	21.4148	16.2664	21.0345	17.8635	23.4248	21.8402	19.8587	19.863	17.4825	18.2781	20.2628	18.6691	17.4719	17.0692	22.6205	21.4262	15.0765	18.6468	18.6461	19.0406	12.6912	19.4286	19.0287	16.6496	17.4448	19.4317	20.6257	14.6774	19.8328	15.0697	21.4082	18.6261	16.6375	16.6302	21.3733	22.9512	17.4118	13.4586	18.2172	20.6023	18.229	19.4155	21.7835	21.7702	14.2406	18.5823	19.3663	18.177	18.1751	18.5685	18.171	21.3269	19.742	13.4205	22.098	20.1202	14.9893	16.9606	20.5108	17.3555	16.5652	14.195	21.677	18.9068	22.8315	17.7048	17.3056	16.1232	21.2345	20.0539	18.8717	20.8321	20.8249	18.0677	16.8842	24.3399	20.4129	23.9468	20.415	20.4153	21.1984	19.6231	19.6152	20.7814	19.594	19.583	21.9218	18	17.213	16.4291	21.5154	16.4321	21.912	23.4774	19.5619	23.077	21.8962	22.6699	21.4895	19.5285	19.1303	21.8547	18.7269	20.6748	18.3353	19.1193	19.1232	19.9054	16.391	24.5808	17.9435	28.0814	18.7211	20.2837	23.0175	24.9697	21.8467	21.0615	24.9526	22.6033	24.5408	19.8588	17.907	18.6827	21.7954	22.1849	17.1264	26.4718	20.6366	20.2516	20.6436	26.0943	24.1386	22.5696	19.4468	24.1072	20.6081	21.3911	24.1211	24.9042	21.4027	17.8988	20.2311	23.3415	20.2278	21.3924	22.9444	23.3294	22.1611	20.2187	24.1119	26.4515	22.1754	20.2289	19.0573	21.7726	20.2116	20.9857	23.3174	19.0444	23.3221	22.5451	23.3194	22.5357	26.0225	22.9058	27.9431	23.6692	22.5047	23.672	17.0787	24.07	32.6127	26.3977	31.8249	20.9525	30.6482	30.6489	30.6545	31.0503	31.0569	29.5067	35.3289	38.4294	37.2583	39.1925	37.2476	40.348	48.1046	46.5515	46.9388	59.3516	61.6773	69.431	79.8965	105.096	114.395	124.859	157.425	195.025	237.257	291.468	331.675	364.095	358.94	316.657	264.754	210.181	181.166	157.949	126.973	110.307	79.3209	85.8738	73.8687	66.5196	66.9168	58.8091	48.7624	42.578	41.8056	37.5435	36.3733	32.8791	32.479	32.852	30.9081	28.9679	28.19	29.7317	28.1871	23.9415	25.4896	27.425	27.8152	23.1811	21.6356	24.3378	22.7892	20.8545	27.8014	23.1641	25.0901	23.9273	23.9212	23.5283	19.279	19.2728	22.3512	23.891	22.3528	17.7337	17.7401	25.845	19.672	21.9777	19.2664	23.1042	19.2442	22.3195	20.013	20.018	16.5561	19.2501	16.1651	18.8509	18.074	16.9162	14.6088	18.4549	18.8416	22.6878	21.9174	19.2235	20.375	19.2218	21.5309	19.9967	16.9234	19.2332	21.5415	17.3093	16.1547	20.3864	19.6196	18.4691	18.4727	21.1692	17.32	19.6266	14.2363	16.5426	18.4661	20.008	19.2434	12.319	18.8669	16.1728	17.7129	21.5628	16.9417	25.026	16.1685	15.3953	21.1634	18.0813	18.8487	19.2335	19.2357	21.1634	15.7803	17.3248	14.6344	17.3359	18.1121	17.7313	22.3604	18.1206	10.7947	18.5033	18.8873	19.2728	13.8782	21.2075	18.1274	16.588	16.2041	19.2913	20.8348	19.2927	18.5239	16.9845	16.6037	17.3814	20.477	17.3895	16.2318	18.9371	18.5489	17.387	18.5432	13.9061	18.5417	16.999	19.3213	18.1665	18.5568	18.5595	17.7886	15.4714	18.9588	17.0321	19.7517	22.4716	15.5001	15.8857	18.5927	22.0737	20.138	17.821	18.6077	17.0689	20.183	15.5288	18.2451	18.2408	10.0883	23.2782	18.6239	15.5236	17.8582	19.806	13.9841	19.8127	16.7041	18.6446	21.3632	17.0933	17.0997	15.9416	19.4503	17.9004	17.9033	15.5684	17.903	10.8973	19.849	21.0175	20.6292	17.5159	19.0731	18.6835	19.8499	15.5667	14.7863	19.0647	15.5637	19.459	17.5197	18.6957	18.3123	20.2634	24.159	17.1422	16.7497	22.5906	17.1375	21.0315	19.4712	14.4063	14.7934	15.5711	16.3508	13.628	18.6937	16.3594	18.6965	15.9667	15.1818	15.1738	14.388	15.1594	23.3171	17.8764	16.7129	17.8819	18.272	19.8254	19.4321	18.6488	17.8661	19.8034	19.0245	13.2005	17.8604	13.9783	16.3076	20.1877	15.5253	14.7445	17.843	14.7356	17.0578	16.6658	23.2474	16.2671	15.4863	25.5438	17.8004	15.4797	14.3221	17.8099	16.6486	19.3522	17.0187	19.3237	19.6965	13.1259	18.9164	16.2177	16.9947	18.1563	16.2245	12.3595	19.6934	18.5305	16.2104	21.222	22.3718	18.5067	15.0297	20.0303	16.9417	21.5545	16.9307	18.8499	21.9229	19.6119	16.149	19.9922	17.6841	16.9136	20.7548	20.7509	14.5993	21.894	18.8177	20.3511	19.1974	19.9631	20.7271	21.488	16.4921	22.9988	22.6013	14.5485	19.1347	14.5391	18.3644	19.5138	16.8374	16.8383	19.516	19.8952	15.6829	18.7387	14.5297	20.2639	21.0287	20.2642	18.7337	16.8187	16.0503	18.7219	20.2491	13.7554	20.6369	16.8186	17.5852	20.6437	18.7307	17.582	18.7272	17.5801	16.0509	20.2529	15.6644	19.8619	19.8573	17.1824	16.0384	16.8067	16.0483	13.7596	17.5836	17.5823	14.5218	25.2174	14.518	12.9904	15.6671	18.3445	19.4922	21.4025	17.5787	20.2513	19.1035	19.4856	16.4305	16.8156	14.5259	16.0591	17.5925	19.125	23.7155	20.2711	14.9142	20.2654	21.0293	18.737	17.2112	16.8333	20.6645	16.8412	19.1406	19.1434	16.0838	18.7701	20.6929	14.9501	16.8708	19.5565	20.3228	15.3375	13.0381	19.9466	19.5726	14.9757	17.6727	16.1417	15.376	23.8346	17.6849	19.2248	16.5364	20.0024	18.4689	20.3985	17.7094	18.485	13.8683	20.4245	16.5772	19.2834	16.2043	16.9816	16.9857	12.3549	18.9189	20.0763	19.303	18.1447	19.3047	23.5574	21.2488	12.3696	20.1128	15.8676	12.0033	13.1687	18.5926	22.0763	20.1356	17.0345	20.5176	21.6821	18.9765	18.9808	19.3701	17.0449	19.7537	16.2654	18.5887	24.0149	16.2742	16.2814	17.0628	15.9023	18.6178	16.2903	17.0675	13.9679	18.6309	17.0845	19.0297	18.6411	15.5317	18.2469	20.9643	18.2503	18.645	20.2057	19.0435	17.4885	16.3193	16.7039	21.7507	20.1975	20.9777	15.5421	16.7096	20.2059	17.8707	19.8072	10.8716	17.8578	16.3051	17.0844	21.7496	16.7055	14.7662	17.0991	19.4288	13.9852	22.1364	14.7537	20.1862	19.4089	17.8557	15.9131	15.5214	19.0079	17.4521	21.7174	16.2921	15.9121	19.028	20.9798	13.9899	18.6522	21.7546	19.0277	21.3496	20.1798	21.3414	19.0129	20.5652	20.9523	17.0691	14.7362	20.5422	19.7544	18.9678	18.5718	19.341	17.794	15.4762	17.4151	18.966	15.8687	19.7336	17.4038	14.3018	20.0889	21.2378	16.2116	17.3637	19.6726	18.5094	19.2743	21.5806	20.0333	14.2505	19.2522	17.7069	18.8563	12.311	18.4628	17.3069	14.6135	19.6107	16.9156	14.9886	18.0553	11.519	17.2703	18.4145	17.259
88.8889	22.2576	22.2519	22.246	24.1911	17.1641	22.2321	21.841	20.2815	26.5232	17.1621	22.2302	22.2248	20.2685	20.6508	21.034	20.6408	21.8087	24.1481	19.8672	18.7009	23.3759	17.9182	24.532	17.9052	22.9573	21.7847	21.0045	22.5608	10.8927	17.5096	24.5205	20.6358	20.2544	20.2615	19.487	22.2173	24.5548	17.9259	19.4798	17.9159	20.2462	17.9053	20.6274	20.6294	22.5831	21.8151	24.1642	20.6631	19.4941	16.3708	21.0386	21.0282	23.356	20.2397	21.8014	21.0342	21.4401	23.0179	14.0537	21.087	22.257	22.2492	17.1669	17.1605	19.4975	19.4991	19.1139	15.9984	18.7355	20.3011	21.0837	16.3977	20.6893	23.0267	20.681	21.459	22.2396	19.5109	21.4662	17.1761	19.1298	12.4932	15.6166	20.6935	23.4316	20.3147	17.9786	21.1137	18.381	19.1636	20.3341	23.8496	19.5479	19.159	22.6822	19.5557	21.5094	18.3756	24.6228	18.7566	19.9309	18.3752	19.5595	21.1362	21.5356	23.1041	18.0109	24.6608	20.3501	17.9999	18.0006	20.3514	23.486	19.9647	17.6152	16.4386	21.1316	21.1285	21.5182	21.518	22.3013	20.346	19.5643	16.4344	21.1302	15.2609	25.0444	18.0022	19.5701	14.0924	21.923	22.313	20.351	18.3875	19.5533	18.3738	19.9336	19.542	17.1989	17.9843	21.5081	19.5573	17.9955	21.9085	14.0829	23.0765	20.3353	22.6803	16.4251	21.9043	21.1257	21.1262	17.9928	17.595	25.404	18.3627	23.4375	20.3122	20.3133	18.3605	17.9681	21.4782	23.4221	18.3398	21.4542	17.9404	17.1611	17.1655	23.0262	19.1306	24.2118	17.9637	20.3026	21.0765	18.3386	21.4561	21.456	15.6056	20.2895	21.4619	20.6826	20.6832	23.4141	22.2404	18.3336	23.7854	24.5555	23.38	24.9382	18.3185	21.0558	19.8955	23.8062	21.0805	23.4273	21.4777	23.4315	19.1348	26.5493	20.6859	21.4579	21.8406	22.6168	27.6877	24.9645	24.5832	22.2491	25.3766	23.8161	18.7402	23.0359	25.3848	27.3513	22.2877	27.3919	18.7946	26.6346	25.0687	25.8484	28.1949	22.3225	28.9888	29.0024	25.4879	23.9297	25.8992	28.26	23.9466	24.7352	28.2708	24.3432	27.8723	27.4734	21.9749	24.3297	22.7668	23.1722	21.2231	23.5961	21.6379	26.7531	28.7127	21.2315	22.4046	18.0799	17.6902	20.4484	16.5209	19.6716	22.8218	25.5802	27.5568	22.451	22.0718	18.9314	18.1526	22.8967	20.5326	23.6942	21.7209	18.9565	22.9051	20.1402	22.9057	16.5903	22.9194	22.1406	20.9654	22.1604	19.7891	22.1624	23.7413	21.7612	21.7632	22.9557	24.5468	22.1787	19.0155	26.5471	20.6054	15.851	18.2295	22.9877	21.01	25.3762	24.5881	21.4177	23.7969	19.8276	21.4084	20.2131	23.7738	17.4313	19.8084	21.001	17.4412	22.2079	20.2339	22.2251	25.8028	18.6604	15.0896	20.2558	20.2603	23.0451	18.2781	19.4682	21.0524	17.0748	20.6418	24.2079	21.4262	22.218	20.6305	23.4068	17.4539	18.6401	17.4461	23.7859	21.803	20.2201	17.4488	14.2794	23.8011	19.4362	18.6389	17.4437	19.0224	18.2221	16.6302	15.832	23.3469	22.5562	18.2087	17.8212	23.7719	22.5881	17.8306	18.219	22.5619	20.1742	22.5359	19.7615	20.9431	21.336	23.7045	22.1213	20.932	16.5832	24.078	21.3088	20.9092	18.9338	21.6939	22.0886	14.9888	14.1987	17.3495	25.6182	20.4823	17.7141	20.0655	20.8454	19.6625	21.6278	13.3693	20.4443	20.4391	18.8602	20.0316	18.0621	17.2735	17.2724	18.8434	19.6298	18.8449	21.1984	20.4081	18.046	16.4683	19.2021	13.3164	22.7047	19.5652	21.125	15.6467	23.0802	17.9971	21.5207	22.6949	21.1269	22.6859	22.2872	16.0253	20.3174	23.4342	21.4728	23.806	23.4086	23.4054	19.8958	24.1918	22.6357	20.2957	19.5131	23.4103	19.8938	24.9612	21.8412	19.8936	20.6767	25.75	20.6764	23.4017	24.9526	23.3827	25.3199	23.7527	21.0212	22.9642	22.963	20.6281	24.522	23.3575	22.5835	23.7567	20.2541	20.2523	26.0853	22.9588	21.7804	16.3307	20.2193	20.2244	27.6226	25.2934	23.7376	23.7354	22.9545	23.3415	28.0077	29.5605	21.7778	24.8847	24.8827	20.9963	22.1674	25.2845	20.6192	19.4509	25.28	22.5502	26.0419	23.3175	29.9241	29.5383	27.5979	23.7112	24.4854	27.1983	30.6833	27.1764	32.2122	33.3696	28.7128	24.0601	33.3811	29.8934	32.6127	34.9382	32.6011	32.9808	38.7952	34.1406	39.5792	35.7079	40.7621	42.7071	43.0935	49.6865	44.2442	51.2218	63.6312	67.1174	76.4243	80.6892	74.0934	95.816	117.924	122.571	144.667	165.982	197.38	246.228	293.912	380.357	465.21	558.129	637.002	668.927	652.442	555.892	463.32	366.559	325.556	243.892	198.202	176.878	151.29	121.461	107.129	98.2324	80.4548	78.1542	69.2736	57.6739	63.4826	53.7994	54.5599	48.3516	46.0119	44.0604	42.885	35.9202	32.0516	40.9294	35.9096	31.6646	34.3723	34.3778	29.3605	30.1355	29.7489	30.1325	28.9693	27.8059	28.5736	23.9362	29.3361	25.085	26.2362	26.9996	30.4608	27.7528	23.8926	27.7444	27.7483	22.3598	25.0676	24.6877	25.4579	27.3757	22.7344	20.0236	22.3232	20.7802	25.786	26.5624	21.1764	23.4851	23.4779	21.9286	24.996	20.3763	23.4509	23.0686	16.919	21.9187	19.9948	20.7614	25.7571	20.7595	20.7619	25.765	15.3849	14.6172	25.3882	23.0791	20.3857	19.6171	20.7737	19.2387	17.703	20.0145	20.0142	20.0115	23.0858	20.7744	18.4661	20.7775	20.0131	17.3236	20.022	17.7131	19.2532	20.0226	21.5622	24.641	18.8632	17.7046	14.622	22.3131	18.0793	16.1562	16.9275	16.5459	21.5535	19.2497	21.9517	20.8031	17.7267	16.9603	13.1078	20.0483	19.6618	18.1178	16.96	16.5746	21.5883	15.8092	15.8132	17.7453	20.4481	18.5196	17.7482	20.0644	18.5239	20.0726	19.6927	21.2439	21.2497	14.6845	13.14	19.71	17.776	19.7052	14.68	20.4728	15.4514	20.0897	13.9114	19.326	15.0774	15.8529	18.562	15.0847	20.1195	22.0643	17.428	19.3721	15.5001	22.4725	20.9168	14.3286	16.2653	18.5958	20.1584	20.9482	19.7948	21.3521	16.6923	17.8527	19.7886	19.0106	16.2959	16.2998	10.8702	18.6409	21.7531	15.9279	16.3156	17.8677	20.1979	19.4243	18.6542	20.2187	18.2833	17.9004	16.3464	17.1252	17.5138	17.1243	17.1246	21.4067	18.6831	19.0729	21.7979	20.2405	13.2333	19.4584	17.8992	10.116	17.8982	16.3455	18.6877	18.6957	18.7019	16.3666	21.8211	17.1422	20.2555	17.5272	17.1375	17.9157	21.4184	16.3531	21.0223	19.4639	18.6866	21.0261	18.3043	18.307	20.644	22.1975	15.571	20.6209	17.1101	19.0464	16.322	19.8194	19.0449	17.4932	20.6046	19.4367	19.4321	17.0947	20.1964	20.9683	21.7423	18.636	19.8018	14.7549	21.7435	15.529	22.5117	15.9086	20.1703	18.6133	23.2607	19.3788	20.5352	20.9149	15.0991	19.3514	19.7353	17.0277	19.7412	20.9072	17.0357	17.03	18.5658	19.3237	16.2206	22.3913	18.5303	19.3068	20.8571	19.7016	17.7697	16.9943	20.0795	17.7584	20.07	18.1352	20.8289	16.1934	20.425	21.1859	15.4015	16.1659	18.8546	18.0806	14.6153	19.6119	17.687	18.4543	18.8374	16.9136	16.9113	18.8296	20.7463	21.1258	17.6656	18.4312	21.5011	16.1241	18.0403	16.8835	20.711	16.0991	16.0891	18.3771	18.752	21.426	19.5122	19.8964	19.5161	17.6037	18.7506	26.0168	18.743	22.1805	17.971	13.7641	18.7347	22.1759	15.2928	24.4636	16.0503	19.104	19.8671	19.8688	19.8726	25.2279	20.2612	17.5854	16.0549	21.4042	16.0519	19.491	19.1082	16.8137	21.3953	17.5702	19.4754	22.1462	21.3846	17.9526	19.1052	17.1995	21.0239	14.5245	19.1076	19.8683	19.1026	19.8677	19.4884	19.491	18.7278	17.5806	18.343	20.2513	19.1035	16.047	15.2842	16.8156	14.5259	18.3532	14.5329	18.36	16.4478	22.1835	18.3559	17.5888	17.5881	17.5898	19.1235	19.1288	21.0471	22.1997	16.4609	14.549	18.3815	16.8547	17.6273	19.9334	18.4045	20.7068	15.7214	18.405	17.6398	18.0287	16.1186	11.5198	17.6727	16.9104	19.6044	16.9149	18.4538	20.3783	18.4592	17.3098	22.7013	19.6287	16.1695	17.7148	17.7206	20.0391	19.2758	20.4404	18.905	14.6659	23.1623	18.5323	19.6911	18.9181	16.6006	24.3216	15.8299	18.537	16.2264	21.6467	17.4053	19.3508	12.7777	17.8165	17.8179	21.689	18.1995	13.9373	20.5176	18.1975	17.8147	14.3324	19.7575	20.9188	17.4297	19.3635	20.1377	18.9795	17.8242	20.5455	20.9407	20.9445	16.2906	15.9025	17.4554	15.9079	17.0783	22.1321	12.4276	18.6411	23.6859	19.7998	17.4703	17.4737	17.8682	17.8742	19.4322	20.9862	16.3193	18.6462	17.0898	17.0902	13.2082	16.7078	18.6526	18.6516	19.4246	20.584	19.8019	20.187	21.7401	21.7438	19.0309	17.871	17.4863	18.6535	19.0402	19.4239	24.4666	17.8597	18.2452	19.4089	17.0793	18.63	19.7898	22.4992	20.9425	17.8393	17.8438	17.8526	22.1346	14.7636	20.9849	13.6006	21.7546	18.251	20.1851	19.4037	17.0731	18.2369	22.8933	16.6842	17.845	19.3898	17.8291	24.0151	19.3549	14.7027	22.4355	20.8886	18.9583	17.8021	18.579	14.7076	15.8642	20.1111	19.3268	19.3163	14.2873	20.0715	19.293	16.5867	19.6662	18.5034	17.7269	20.8038	19.6426	15.4017	19.6316	16.5473	15.3888	19.6167	18.8453	20.3821	18.0726	21.529	19.2161	18.0553	16.8945	17.6541	17.6472	22.2449
